'i','ii','iii','avr','avl','avf','v1','v2','v3','v4','v5','v6','vx','vy','vz'
-0.244,-0.22899999999999998,0.015,0.237,-0.13,-0.107,-0.044000000000000004,-0.12,-0.055999999999999994,0.106,0.19699999999999998,0.195,-0.002,0.06,-0.009000000000000001
-0.242,-0.23399999999999999,0.009000000000000001,0.23800000000000002,-0.126,-0.113,-0.042,-0.11699999999999999,-0.051,0.11,0.20199999999999999,0.198,-0.002,0.061,-0.01
-0.24100000000000002,-0.23399999999999999,0.006999999999999999,0.23800000000000002,-0.124,-0.114,-0.044000000000000004,-0.11800000000000001,-0.053,0.11,0.201,0.19699999999999998,-0.004,0.055999999999999994,-0.009000000000000001
-0.24100000000000002,-0.22899999999999998,0.012,0.235,-0.126,-0.109,-0.045,-0.11699999999999999,-0.051,0.11199999999999999,0.201,0.19699999999999998,-0.002,0.053,-0.008
-0.23199999999999998,-0.22699999999999998,0.004,0.23,-0.11800000000000001,-0.11199999999999999,-0.045,-0.11699999999999999,-0.05,0.11199999999999999,0.2,0.19899999999999998,0.001,0.054000000000000006,-0.009000000000000001
-0.226,-0.233,-0.006999999999999999,0.23,-0.11,-0.12,-0.051,-0.121,-0.053,0.107,0.196,0.19399999999999998,0.0,0.055999999999999994,-0.009000000000000001
-0.225,-0.23600000000000002,-0.011000000000000001,0.231,-0.106,-0.124,-0.052000000000000005,-0.121,-0.054000000000000006,0.106,0.19399999999999998,0.193,0.001,0.057999999999999996,-0.008
-0.23399999999999999,-0.23399999999999999,0.001,0.23399999999999999,-0.11699999999999999,-0.11699999999999999,-0.049,-0.11699999999999999,-0.051,0.11199999999999999,0.19899999999999998,0.19899999999999998,0.002,0.052000000000000005,-0.008
-0.23399999999999999,-0.233,0.002,0.23399999999999999,-0.11800000000000001,-0.11599999999999999,-0.051,-0.11800000000000001,-0.05,0.111,0.201,0.19699999999999998,0.001,0.048,-0.006999999999999999
-0.22399999999999998,-0.235,-0.012,0.23,-0.105,-0.124,-0.055,-0.12,-0.054000000000000006,0.10800000000000001,0.198,0.19399999999999998,0.0,0.049,-0.006
-0.221,-0.231,-0.011000000000000001,0.226,-0.10400000000000001,-0.121,-0.054000000000000006,-0.12300000000000001,-0.054000000000000006,0.109,0.19899999999999998,0.195,0.001,0.053,-0.006999999999999999
-0.22699999999999998,-0.228,-0.001,0.228,-0.113,-0.115,-0.057,-0.122,-0.053,0.10800000000000001,0.198,0.196,0.003,0.062,-0.005
-0.23199999999999998,-0.226,0.006,0.22899999999999998,-0.11900000000000001,-0.11,-0.053,-0.11900000000000001,-0.052000000000000005,0.109,0.198,0.198,0.003,0.061,-0.005
-0.237,-0.23,0.008,0.23399999999999999,-0.122,-0.11199999999999999,-0.051,-0.12,-0.051,0.111,0.19899999999999998,0.19899999999999998,0.001,0.05,-0.005
-0.244,-0.233,0.012,0.23800000000000002,-0.128,-0.111,-0.049,-0.11900000000000001,-0.052000000000000005,0.113,0.19899999999999998,0.20199999999999999,0.001,0.053,-0.005
-0.237,-0.221,0.016,0.22899999999999998,-0.126,-0.10300000000000001,-0.051,-0.11900000000000001,-0.054000000000000006,0.11,0.198,0.20199999999999999,0.003,0.059000000000000004,-0.005
-0.22399999999999998,-0.213,0.011000000000000001,0.218,-0.11699999999999999,-0.102,-0.055999999999999994,-0.122,-0.057,0.106,0.196,0.19699999999999998,0.002,0.057999999999999996,-0.005
-0.22699999999999998,-0.213,0.013000000000000001,0.22,-0.11900000000000001,-0.10099999999999999,-0.053,-0.121,-0.055999999999999994,0.106,0.198,0.198,0.001,0.059000000000000004,-0.004
-0.22699999999999998,-0.209,0.018000000000000002,0.218,-0.122,-0.096,-0.052000000000000005,-0.11900000000000001,-0.054000000000000006,0.10800000000000001,0.201,0.19899999999999998,0.004,0.066,-0.003
-0.228,-0.20800000000000002,0.019,0.218,-0.12300000000000001,-0.095,-0.052000000000000005,-0.11900000000000001,-0.055,0.109,0.20199999999999999,0.19699999999999998,0.004,0.067,-0.003
-0.233,-0.21100000000000002,0.021,0.222,-0.127,-0.096,-0.052000000000000005,-0.12,-0.055,0.10800000000000001,0.203,0.19699999999999998,0.002,0.057,-0.003
-0.226,-0.214,0.013000000000000001,0.22,-0.11900000000000001,-0.10099999999999999,-0.052000000000000005,-0.11900000000000001,-0.054000000000000006,0.109,0.20199999999999999,0.19699999999999998,-0.001,0.057,-0.004
-0.226,-0.21600000000000003,0.009000000000000001,0.221,-0.11699999999999999,-0.10400000000000001,-0.051,-0.11900000000000001,-0.054000000000000006,0.10800000000000001,0.201,0.19699999999999998,-0.002,0.059000000000000004,-0.003
-0.21100000000000002,-0.203,0.008,0.207,-0.109,-0.098,-0.05,-0.11900000000000001,-0.052000000000000005,0.10800000000000001,0.201,0.19899999999999998,-0.001,0.062,-0.002
-0.213,-0.21,0.004,0.21100000000000002,-0.10800000000000001,-0.10300000000000001,-0.051,-0.12,-0.054000000000000006,0.107,0.19899999999999998,0.19699999999999998,0.001,0.061,-0.002
-0.22399999999999998,-0.226,-0.002,0.225,-0.111,-0.114,-0.053,-0.121,-0.057,0.10400000000000001,0.198,0.193,0.0,0.052000000000000005,-0.004
-0.22,-0.223,-0.003,0.222,-0.10800000000000001,-0.113,-0.052000000000000005,-0.11900000000000001,-0.057999999999999996,0.10300000000000001,0.198,0.19399999999999998,0.0,0.052000000000000005,-0.004
-0.21600000000000003,-0.22,-0.004,0.218,-0.105,-0.11199999999999999,-0.051,-0.11800000000000001,-0.055999999999999994,0.10400000000000001,0.198,0.195,0.002,0.052000000000000005,-0.004
-0.2,-0.207,-0.006999999999999999,0.203,-0.096,-0.107,-0.046,-0.113,-0.05,0.111,0.204,0.2,0.003,0.05,-0.005
-0.19699999999999998,-0.203,-0.005,0.2,-0.095,-0.10400000000000001,-0.043,-0.111,-0.046,0.114,0.20600000000000002,0.203,0.004,0.051,-0.004
-0.19699999999999998,-0.20199999999999999,-0.005,0.19899999999999998,-0.096,-0.10300000000000001,-0.044000000000000004,-0.10800000000000001,-0.046,0.113,0.205,0.203,0.004,0.048,-0.005
-0.209,-0.19899999999999998,0.01,0.204,-0.11,-0.095,-0.040999999999999995,-0.105,-0.044000000000000004,0.115,0.20600000000000002,0.205,0.002,0.047,-0.006
-0.23800000000000002,-0.222,0.016,0.231,-0.127,-0.10300000000000001,-0.049,-0.113,-0.051,0.10800000000000001,0.19899999999999998,0.19899999999999998,0.001,0.051,-0.005
-0.252,-0.237,0.015,0.244,-0.134,-0.111,-0.051,-0.114,-0.052000000000000005,0.105,0.19699999999999998,0.19699999999999998,0.001,0.044000000000000004,-0.004
-0.23800000000000002,-0.22899999999999998,0.01,0.23399999999999999,-0.124,-0.11,-0.045,-0.11199999999999999,-0.048,0.10800000000000001,0.2,0.19899999999999998,0.001,0.044000000000000004,-0.003
-0.22699999999999998,-0.218,0.006999999999999999,0.223,-0.11699999999999999,-0.105,-0.044000000000000004,-0.107,-0.046,0.11,0.20199999999999999,0.201,0.002,0.051,-0.002
-0.23399999999999999,-0.213,0.021,0.22399999999999998,-0.128,-0.096,-0.04,-0.10300000000000001,-0.043,0.111,0.204,0.203,0.001,0.052000000000000005,-0.002
-0.255,-0.233,0.022000000000000002,0.243,-0.138,-0.105,-0.045,-0.11,-0.049,0.107,0.19899999999999998,0.196,0.002,0.044000000000000004,-0.003
-0.247,-0.23199999999999998,0.017,0.239,-0.132,-0.10800000000000001,-0.046,-0.111,-0.049,0.105,0.198,0.193,0.002,0.042,-0.004
-0.231,-0.215,0.016,0.223,-0.12300000000000001,-0.1,-0.045,-0.107,-0.044000000000000004,0.107,0.201,0.193,0.002,0.052000000000000005,-0.004
-0.23,-0.214,0.015,0.222,-0.122,-0.1,-0.046,-0.107,-0.044000000000000004,0.10800000000000001,0.2,0.192,0.001,0.048,-0.001
-0.22,-0.21600000000000003,0.004,0.218,-0.11199999999999999,-0.107,-0.049,-0.11,-0.046,0.105,0.19399999999999998,0.192,-0.001,0.05,-0.001
-0.214,-0.209,0.005,0.212,-0.11,-0.102,-0.042,-0.10400000000000001,-0.042,0.113,0.2,0.195,-0.003,0.055999999999999994,-0.002
-0.214,-0.207,0.006999999999999999,0.21100000000000002,-0.111,-0.1,-0.04,-0.102,-0.038,0.11199999999999999,0.19899999999999998,0.195,0.0,0.052000000000000005,0.001
-0.228,-0.225,0.003,0.226,-0.115,-0.111,-0.045,-0.107,-0.044000000000000004,0.105,0.192,0.191,0.001,0.046,0.001
-0.225,-0.226,-0.002,0.226,-0.11199999999999999,-0.114,-0.044000000000000004,-0.10800000000000001,-0.046,0.10300000000000001,0.18600000000000003,0.188,-0.003,0.048,0.001
-0.213,-0.22699999999999998,-0.013000000000000001,0.22,-0.1,-0.12,-0.049,-0.113,-0.05,0.098,0.18,0.183,-0.003,0.051,0.003
-0.201,-0.21899999999999997,-0.018000000000000002,0.21,-0.091,-0.11900000000000001,-0.044000000000000004,-0.106,-0.043,0.105,0.187,0.18600000000000003,-0.002,0.044000000000000004,0.002
-0.20600000000000002,-0.22,-0.013000000000000001,0.213,-0.09699999999999999,-0.11699999999999999,-0.038,-0.10400000000000001,-0.038,0.11,0.19,0.187,-0.004,0.044000000000000004,0.0
-0.228,-0.23800000000000002,-0.011000000000000001,0.233,-0.10800000000000001,-0.125,-0.045,-0.11199999999999999,-0.044000000000000004,0.10400000000000001,0.185,0.18,-0.006,0.045,0.003
-0.21899999999999997,-0.23800000000000002,-0.019,0.22899999999999998,-0.1,-0.129,-0.047,-0.10800000000000001,-0.046,0.099,0.17800000000000002,0.17800000000000002,-0.001,0.045,0.003
-0.215,-0.22899999999999998,-0.013000000000000001,0.222,-0.10099999999999999,-0.121,-0.043,-0.106,-0.042,0.10099999999999999,0.18,0.182,-0.001,0.048,0.005
-0.215,-0.226,-0.01,0.221,-0.102,-0.11800000000000001,-0.042,-0.105,-0.040999999999999995,0.102,0.18100000000000002,0.183,-0.003,0.044000000000000004,0.004
-0.222,-0.228,-0.006,0.225,-0.107,-0.11699999999999999,-0.036000000000000004,-0.102,-0.039,0.10400000000000001,0.18100000000000002,0.182,-0.004,0.036000000000000004,0.003
-0.23199999999999998,-0.233,-0.002,0.23199999999999998,-0.115,-0.11699999999999999,-0.038,-0.10300000000000001,-0.037000000000000005,0.10400000000000001,0.184,0.179,-0.006999999999999999,0.028999999999999998,0.004
-0.228,-0.22899999999999998,-0.001,0.228,-0.114,-0.115,-0.04,-0.10300000000000001,-0.038,0.10400000000000001,0.185,0.177,-0.006,0.037000000000000005,0.004
-0.21899999999999997,-0.22,-0.001,0.22,-0.109,-0.111,-0.04,-0.1,-0.034,0.106,0.187,0.185,-0.002,0.043,0.005
-0.221,-0.223,-0.002,0.222,-0.109,-0.113,-0.040999999999999995,-0.099,-0.034,0.105,0.184,0.188,-0.002,0.04,0.005
-0.22699999999999998,-0.228,-0.001,0.22699999999999998,-0.113,-0.115,-0.040999999999999995,-0.10099999999999999,-0.038,0.102,0.182,0.18100000000000002,-0.004,0.04,0.004
-0.22699999999999998,-0.226,0.001,0.226,-0.113,-0.113,-0.040999999999999995,-0.10099999999999999,-0.036000000000000004,0.102,0.18100000000000002,0.18,-0.004,0.040999999999999995,0.005
-0.22899999999999998,-0.22699999999999998,0.003,0.228,-0.11599999999999999,-0.11199999999999999,-0.038,-0.096,-0.032,0.106,0.184,0.18100000000000002,-0.005,0.036000000000000004,0.006
-0.23199999999999998,-0.231,0.001,0.23199999999999998,-0.11599999999999999,-0.11599999999999999,-0.035,-0.09,-0.027999999999999997,0.107,0.185,0.18,-0.006,0.04,0.006
-0.235,-0.235,0.001,0.235,-0.11800000000000001,-0.11699999999999999,-0.035,-0.08800000000000001,-0.028999999999999998,0.105,0.183,0.18100000000000002,-0.006,0.035,0.006999999999999999
-0.22399999999999998,-0.24,-0.017,0.23199999999999998,-0.10300000000000001,-0.129,-0.043,-0.095,-0.034,0.1,0.17300000000000001,0.17600000000000002,-0.004,0.03,0.009000000000000001
-0.213,-0.244,-0.03,0.22899999999999998,-0.091,-0.138,-0.046,-0.096,-0.035,0.098,0.171,0.172,-0.003,0.033,0.009000000000000001
-0.21600000000000003,-0.242,-0.026000000000000002,0.22899999999999998,-0.095,-0.135,-0.043,-0.09,-0.028999999999999998,0.1,0.175,0.174,-0.003,0.025,0.008
-0.21100000000000002,-0.245,-0.035,0.22899999999999998,-0.08800000000000001,-0.141,-0.043,-0.08800000000000001,-0.027999999999999997,0.099,0.171,0.171,-0.003,0.021,0.006999999999999999
-0.212,-0.249,-0.036000000000000004,0.231,-0.08800000000000001,-0.14300000000000002,-0.04,-0.087,-0.026000000000000002,0.1,0.172,0.171,-0.003,0.024,0.006
-0.218,-0.252,-0.033,0.235,-0.092,-0.142,-0.036000000000000004,-0.083,-0.022000000000000002,0.10300000000000001,0.174,0.17300000000000001,-0.003,0.024,0.008
-0.21100000000000002,-0.253,-0.042,0.23199999999999998,-0.085,-0.147,-0.035,-0.079,-0.019,0.102,0.171,0.168,-0.005,0.015,0.011000000000000001
-0.203,-0.254,-0.05,0.22899999999999998,-0.076,-0.152,-0.038,-0.08199999999999999,-0.023,0.099,0.16399999999999998,0.161,-0.006999999999999999,0.018000000000000002,0.009000000000000001
-0.201,-0.243,-0.042,0.222,-0.08,-0.142,-0.035,-0.077,-0.017,0.10300000000000001,0.168,0.162,-0.006999999999999999,0.016,0.01
-0.204,-0.23600000000000002,-0.031,0.22,-0.086,-0.134,-0.028999999999999998,-0.067,-0.004,0.113,0.172,0.163,-0.01,0.009000000000000001,0.009000000000000001
-0.231,-0.262,-0.032,0.24600000000000002,-0.1,-0.147,-0.035,-0.07200000000000001,-0.01,0.11,0.166,0.155,-0.012,0.011000000000000001,0.008
-0.233,-0.275,-0.042,0.254,-0.096,-0.159,-0.042,-0.08,-0.018000000000000002,0.099,0.161,0.151,-0.01,0.006,0.013000000000000001
-0.217,-0.267,-0.049,0.242,-0.084,-0.158,-0.042,-0.07400000000000001,-0.015,0.102,0.16,0.154,-0.006999999999999999,0.003,0.013000000000000001
-0.222,-0.26,-0.037000000000000005,0.24100000000000002,-0.092,-0.149,-0.039,-0.07,-0.008,0.105,0.16399999999999998,0.159,-0.005,0.004,0.013000000000000001
-0.225,-0.26,-0.035,0.242,-0.095,-0.147,-0.039,-0.071,-0.006999999999999999,0.102,0.162,0.155,-0.005,0.006,0.013000000000000001
-0.213,-0.261,-0.048,0.237,-0.083,-0.154,-0.042,-0.07,-0.008,0.10099999999999999,0.16,0.153,-0.006,0.006999999999999999,0.012
-0.20800000000000002,-0.259,-0.05,0.23399999999999999,-0.079,-0.154,-0.043,-0.07,-0.009000000000000001,0.09699999999999999,0.154,0.15,-0.006999999999999999,0.006999999999999999,0.013000000000000001
-0.214,-0.263,-0.049,0.23800000000000002,-0.083,-0.156,-0.043,-0.067,-0.006,0.09699999999999999,0.153,0.14800000000000002,-0.009000000000000001,0.0,0.013000000000000001
-0.21100000000000002,-0.266,-0.054000000000000006,0.239,-0.079,-0.161,-0.039,-0.06,-0.001,0.102,0.156,0.15,-0.009000000000000001,-0.004,0.013000000000000001
-0.20800000000000002,-0.27,-0.06,0.239,-0.073,-0.166,-0.038,-0.057999999999999996,0.002,0.102,0.155,0.14800000000000002,-0.009000000000000001,-0.003,0.015
-0.20800000000000002,-0.275,-0.067,0.24100000000000002,-0.07,-0.171,-0.04,-0.054000000000000006,0.004,0.10099999999999999,0.153,0.145,-0.009000000000000001,-0.006,0.017
-0.21,-0.282,-0.071,0.24600000000000002,-0.07,-0.177,-0.040999999999999995,-0.051,0.006,0.10099999999999999,0.15,0.142,-0.009000000000000001,-0.011000000000000001,0.018000000000000002
-0.215,-0.285,-0.07,0.25,-0.073,-0.177,-0.037000000000000005,-0.044000000000000004,0.013000000000000001,0.10400000000000001,0.153,0.14800000000000002,-0.006,-0.015,0.019
-0.21100000000000002,-0.289,-0.078,0.251,-0.067,-0.184,-0.037000000000000005,-0.040999999999999995,0.015,0.10400000000000001,0.15,0.145,-0.006999999999999999,-0.013000000000000001,0.02
-0.204,-0.284,-0.081,0.244,-0.061,-0.182,-0.032,-0.033,0.022000000000000002,0.109,0.152,0.145,-0.006999999999999999,-0.018000000000000002,0.018000000000000002
-0.193,-0.287,-0.094,0.24,-0.049,-0.191,-0.035,-0.034,0.022000000000000002,0.106,0.145,0.141,-0.006,-0.023,0.022000000000000002
-0.177,-0.299,-0.122,0.23800000000000002,-0.027999999999999997,-0.21100000000000002,-0.045,-0.040999999999999995,0.013999999999999999,0.095,0.13,0.125,-0.009000000000000001,-0.027999999999999997,0.025
-0.201,-0.309,-0.10800000000000001,0.255,-0.046,-0.209,-0.04,-0.032,0.024,0.10099999999999999,0.133,0.128,-0.011000000000000001,-0.033,0.024
-0.19,-0.297,-0.107,0.243,-0.042,-0.20199999999999999,-0.032,-0.021,0.035,0.109,0.139,0.133,-0.009000000000000001,-0.034,0.026000000000000002
-0.162,-0.272,-0.11,0.21600000000000003,-0.026000000000000002,-0.191,-0.022000000000000002,-0.005,0.047,0.11900000000000001,0.145,0.141,-0.006,-0.038,0.025
-0.193,-0.297,-0.10400000000000001,0.244,-0.043,-0.201,-0.025,-0.005,0.048,0.11599999999999999,0.14,0.136,-0.005,-0.04,0.025
-0.2,-0.32299999999999995,-0.12300000000000001,0.262,-0.038,-0.22399999999999998,-0.036000000000000004,-0.013000000000000001,0.040999999999999995,0.10400000000000001,0.129,0.122,-0.006999999999999999,-0.043,0.027000000000000003
-0.195,-0.324,-0.13,0.259,-0.032,-0.22699999999999998,-0.038,-0.011000000000000001,0.045,0.105,0.126,0.11900000000000001,-0.006999999999999999,-0.048,0.027000000000000003
-0.188,-0.316,-0.128,0.252,-0.03,-0.223,-0.035,-0.004,0.051,0.107,0.126,0.12,-0.006,-0.052000000000000005,0.027000000000000003
-0.19399999999999998,-0.311,-0.11699999999999999,0.253,-0.038,-0.214,-0.025,0.009000000000000001,0.062,0.11599999999999999,0.131,0.126,-0.006999999999999999,-0.055999999999999994,0.028999999999999998
-0.212,-0.322,-0.109,0.268,-0.051,-0.21600000000000003,-0.022000000000000002,0.015,0.068,0.11800000000000001,0.129,0.124,-0.006999999999999999,-0.054000000000000006,0.03
-0.192,-0.32299999999999995,-0.131,0.258,-0.03,-0.22699999999999998,-0.028999999999999998,0.015,0.066,0.114,0.12,0.11699999999999999,-0.006,-0.055,0.03
-0.16699999999999998,-0.321,-0.153,0.244,-0.006999999999999999,-0.237,-0.032,0.017,0.069,0.111,0.11699999999999999,0.111,-0.006,-0.061,0.034
-0.162,-0.32,-0.159,0.24,-0.002,-0.239,-0.025,0.024,0.078,0.11699999999999999,0.11900000000000001,0.114,-0.006999999999999999,-0.066,0.035
-0.168,-0.33,-0.162,0.249,-0.003,-0.24600000000000002,-0.023,0.033,0.086,0.122,0.11599999999999999,0.11199999999999999,-0.006,-0.064,0.038
-0.162,-0.33799999999999997,-0.175,0.25,0.006999999999999999,-0.257,-0.025,0.035,0.08900000000000001,0.121,0.11199999999999999,0.106,-0.006,-0.067,0.040999999999999995
-0.157,-0.34299999999999997,-0.185,0.249,0.015,-0.265,-0.025,0.040999999999999995,0.09300000000000001,0.121,0.10800000000000001,0.105,-0.005,-0.077,0.040999999999999995
-0.166,-0.36200000000000004,-0.19699999999999998,0.264,0.015,-0.28,-0.028999999999999998,0.039,0.092,0.11599999999999999,0.102,0.095,-0.005,-0.092,0.04
-0.151,-0.36,-0.209,0.256,0.028999999999999998,-0.285,-0.026000000000000002,0.044000000000000004,0.1,0.12,0.10099999999999999,0.095,-0.006,-0.1,0.04
-0.146,-0.35700000000000004,-0.21100000000000002,0.252,0.033,-0.284,-0.021,0.054000000000000006,0.111,0.126,0.102,0.098,-0.004,-0.102,0.040999999999999995
-0.152,-0.365,-0.212,0.259,0.03,-0.289,-0.019,0.059000000000000004,0.11699999999999999,0.129,0.10099999999999999,0.09699999999999999,-0.004,-0.109,0.042
-0.146,-0.365,-0.22,0.256,0.037000000000000005,-0.292,-0.017,0.069,0.122,0.13,0.10099999999999999,0.098,-0.004,-0.107,0.045
-0.141,-0.36700000000000005,-0.226,0.254,0.043,-0.297,-0.017,0.076,0.13,0.13,0.1,0.09699999999999999,-0.003,-0.105,0.046
-0.142,-0.36200000000000004,-0.22,0.252,0.04,-0.29100000000000004,-0.015,0.083,0.14,0.135,0.10099999999999999,0.095,-0.003,-0.105,0.047
-0.145,-0.368,-0.22399999999999998,0.257,0.04,-0.29600000000000004,-0.017,0.086,0.14400000000000002,0.134,0.098,0.09,-0.003,-0.111,0.046
-0.161,-0.381,-0.221,0.271,0.03,-0.301,-0.013000000000000001,0.092,0.152,0.139,0.099,0.09,-0.001,-0.12300000000000001,0.048
-0.156,-0.382,-0.226,0.26899999999999996,0.035,-0.304,-0.015,0.096,0.155,0.13699999999999998,0.09300000000000001,0.087,-0.001,-0.129,0.051
-0.139,-0.386,-0.248,0.262,0.055,-0.317,-0.023,0.095,0.152,0.129,0.083,0.078,-0.002,-0.127,0.052000000000000005
-0.136,-0.374,-0.23800000000000002,0.255,0.051,-0.306,-0.015,0.107,0.16699999999999998,0.139,0.08900000000000001,0.085,0.003,-0.13,0.054000000000000006
-0.13699999999999998,-0.366,-0.22899999999999998,0.252,0.046,-0.298,-0.004,0.12,0.18,0.147,0.095,0.08900000000000001,0.004,-0.134,0.055999999999999994
-0.154,-0.385,-0.231,0.26899999999999996,0.038,-0.307,-0.004,0.12300000000000001,0.183,0.145,0.08800000000000001,0.085,0.001,-0.136,0.054000000000000006
-0.135,-0.389,-0.254,0.262,0.059000000000000004,-0.321,-0.011000000000000001,0.12300000000000001,0.182,0.139,0.079,0.07400000000000001,0.0,-0.135,0.057
-0.11699999999999999,-0.395,-0.27699999999999997,0.256,0.08,-0.336,-0.018000000000000002,0.121,0.18100000000000002,0.135,0.07,0.062,-0.001,-0.135,0.059000000000000004
-0.124,-0.401,-0.27699999999999997,0.263,0.076,-0.33899999999999997,-0.015,0.131,0.191,0.14,0.07200000000000001,0.063,-0.001,-0.145,0.057
-0.125,-0.4,-0.275,0.263,0.075,-0.33799999999999997,-0.009000000000000001,0.141,0.201,0.14400000000000002,0.07400000000000001,0.067,0.0,-0.14800000000000002,0.061
-0.139,-0.405,-0.267,0.272,0.064,-0.336,-0.002,0.152,0.21,0.149,0.07400000000000001,0.069,0.002,-0.149,0.06
-0.12,-0.413,-0.293,0.267,0.087,-0.354,-0.009000000000000001,0.149,0.209,0.145,0.068,0.059000000000000004,0.001,-0.158,0.06
-0.091,-0.418,-0.327,0.255,0.11800000000000001,-0.373,-0.015,0.14800000000000002,0.21,0.141,0.059000000000000004,0.049,0.001,-0.16399999999999998,0.062
-0.08800000000000001,-0.414,-0.327,0.252,0.11900000000000001,-0.37,-0.009000000000000001,0.163,0.221,0.14800000000000002,0.063,0.053,0.002,-0.171,0.063
-0.08900000000000001,-0.419,-0.32899999999999996,0.254,0.12,-0.374,-0.009000000000000001,0.16899999999999998,0.228,0.151,0.06,0.051,0.002,-0.18100000000000002,0.063
-0.09300000000000001,-0.428,-0.336,0.261,0.121,-0.38299999999999995,-0.005,0.17300000000000001,0.23399999999999999,0.153,0.06,0.044000000000000004,-0.002,-0.188,0.061
-0.077,-0.428,-0.35100000000000003,0.253,0.13699999999999998,-0.39,-0.004,0.179,0.237,0.152,0.055999999999999994,0.045,0.0,-0.18899999999999997,0.065
-0.078,-0.434,-0.35600000000000004,0.256,0.14,-0.395,-0.004,0.184,0.24100000000000002,0.153,0.051,0.045,0.0,-0.192,0.065
-0.09,-0.441,-0.35100000000000003,0.266,0.131,-0.397,-0.004,0.188,0.245,0.153,0.05,0.042,-0.002,-0.198,0.066
-0.09699999999999999,-0.44799999999999995,-0.35100000000000003,0.273,0.127,-0.4,-0.004,0.192,0.252,0.154,0.046,0.039,-0.001,-0.20199999999999999,0.065
-0.099,-0.45,-0.35100000000000003,0.27399999999999997,0.127,-0.401,0.002,0.19899999999999998,0.262,0.16,0.049,0.04,0.001,-0.201,0.065
-0.094,-0.444,-0.349,0.26899999999999996,0.128,-0.397,0.006,0.207,0.26899999999999996,0.16399999999999998,0.051,0.043,0.003,-0.198,0.069
-0.102,-0.446,-0.344,0.27399999999999997,0.121,-0.395,0.009000000000000001,0.215,0.27699999999999997,0.16899999999999998,0.053,0.043,0.004,-0.201,0.071
-0.092,-0.44799999999999995,-0.355,0.27,0.132,-0.402,0.006999999999999999,0.218,0.278,0.16699999999999998,0.051,0.04,0.005,-0.201,0.07400000000000001
-0.092,-0.45,-0.358,0.271,0.133,-0.40399999999999997,0.006999999999999999,0.222,0.282,0.168,0.051,0.036000000000000004,0.004,-0.203,0.071
-0.08199999999999999,-0.447,-0.365,0.264,0.142,-0.406,0.009000000000000001,0.228,0.29,0.172,0.052000000000000005,0.036000000000000004,0.003,-0.205,0.069
-0.075,-0.44299999999999995,-0.36700000000000005,0.259,0.146,-0.405,0.013000000000000001,0.237,0.298,0.17600000000000002,0.054000000000000006,0.036000000000000004,0.004,-0.201,0.069
-0.079,-0.445,-0.366,0.262,0.14300000000000002,-0.406,0.017,0.24100000000000002,0.305,0.179,0.053,0.036000000000000004,0.004,-0.20600000000000002,0.07
-0.067,-0.451,-0.384,0.259,0.159,-0.41700000000000004,0.017,0.245,0.307,0.17600000000000002,0.048,0.033,0.004,-0.215,0.069
-0.07200000000000001,-0.45799999999999996,-0.386,0.265,0.158,-0.42200000000000004,0.018000000000000002,0.25,0.31,0.17600000000000002,0.047,0.028999999999999998,0.004,-0.217,0.068
-0.059000000000000004,-0.452,-0.39299999999999996,0.255,0.168,-0.42200000000000004,0.02,0.257,0.316,0.17800000000000002,0.045,0.028999999999999998,0.006999999999999999,-0.214,0.069
-0.052000000000000005,-0.44799999999999995,-0.395,0.25,0.172,-0.42100000000000004,0.024,0.264,0.325,0.18100000000000002,0.044000000000000004,0.028999999999999998,0.006,-0.212,0.069
-0.051,-0.452,-0.401,0.251,0.175,-0.426,0.025,0.266,0.327,0.18100000000000002,0.042,0.022000000000000002,0.006,-0.214,0.069
-0.049,-0.45799999999999996,-0.41,0.253,0.18100000000000002,-0.434,0.025,0.27,0.33,0.18,0.038,0.021,0.006999999999999999,-0.221,0.07
-0.047,-0.457,-0.409,0.252,0.18100000000000002,-0.433,0.025,0.276,0.336,0.183,0.038,0.019,0.006999999999999999,-0.228,0.067
-0.038,-0.45299999999999996,-0.414,0.245,0.18899999999999997,-0.434,0.026000000000000002,0.282,0.342,0.188,0.039,0.021,0.01,-0.23199999999999998,0.069
-0.034,-0.45299999999999996,-0.42,0.243,0.19399999999999998,-0.43700000000000006,0.028999999999999998,0.28800000000000003,0.348,0.19,0.037000000000000005,0.021,0.011000000000000001,-0.23399999999999999,0.07
-0.013999999999999999,-0.441,-0.426,0.22699999999999998,0.20600000000000002,-0.433,0.035,0.298,0.35700000000000004,0.196,0.039,0.021,0.009000000000000001,-0.23199999999999998,0.068
-0.019,-0.44,-0.42,0.23,0.201,-0.43,0.039,0.302,0.36200000000000004,0.196,0.038,0.021,0.011000000000000001,-0.225,0.068
-0.028999999999999998,-0.442,-0.41200000000000003,0.235,0.193,-0.42700000000000005,0.040999999999999995,0.307,0.369,0.2,0.038,0.022000000000000002,0.011000000000000001,-0.226,0.067
-0.037000000000000005,-0.447,-0.409,0.24100000000000002,0.18600000000000003,-0.428,0.045,0.318,0.37799999999999995,0.205,0.038,0.025,0.011000000000000001,-0.233,0.067
-0.025,-0.43799999999999994,-0.41200000000000003,0.23199999999999998,0.19399999999999998,-0.425,0.045,0.319,0.38,0.203,0.034,0.02,0.011000000000000001,-0.23399999999999999,0.066
-0.011000000000000001,-0.423,-0.41100000000000003,0.217,0.2,-0.41700000000000004,0.051,0.32799999999999996,0.389,0.20800000000000002,0.038,0.022000000000000002,0.01,-0.233,0.066
-0.017,-0.42100000000000004,-0.406,0.21899999999999997,0.195,-0.414,0.055,0.335,0.396,0.212,0.037000000000000005,0.021,0.009000000000000001,-0.231,0.065
-0.021,-0.439,-0.41700000000000004,0.23,0.198,-0.428,0.048,0.32899999999999996,0.392,0.203,0.025,0.013000000000000001,0.011000000000000001,-0.231,0.066
-0.055,-0.47600000000000003,-0.42100000000000004,0.266,0.183,-0.449,0.035,0.32,0.382,0.191,0.011000000000000001,-0.001,0.011000000000000001,-0.22899999999999998,0.065
-0.065,-0.48,-0.41600000000000004,0.272,0.17600000000000002,-0.449,0.035,0.322,0.386,0.191,0.01,-0.004,0.011000000000000001,-0.228,0.064
-0.04,-0.461,-0.42100000000000004,0.251,0.191,-0.441,0.047,0.336,0.401,0.20199999999999999,0.019,0.004,0.009000000000000001,-0.23399999999999999,0.064
-0.006999999999999999,-0.439,-0.431,0.223,0.212,-0.435,0.057,0.34600000000000003,0.41,0.20800000000000002,0.025,0.005,0.008,-0.23199999999999998,0.061
-0.034,-0.461,-0.42700000000000005,0.247,0.19699999999999998,-0.445,0.053,0.345,0.408,0.205,0.02,-0.002,0.009000000000000001,-0.239,0.062
-0.051,-0.48100000000000004,-0.43,0.267,0.19,-0.456,0.048,0.342,0.406,0.2,0.01,-0.003,0.013000000000000001,-0.24100000000000002,0.062
-0.03,-0.467,-0.436,0.248,0.203,-0.452,0.055,0.35,0.41600000000000004,0.20600000000000002,0.015,-0.002,0.011000000000000001,-0.231,0.061
-0.037000000000000005,-0.467,-0.43,0.252,0.19699999999999998,-0.449,0.061,0.35700000000000004,0.423,0.213,0.022000000000000002,-0.003,0.01,-0.23800000000000002,0.059000000000000004
-0.036000000000000004,-0.465,-0.428,0.251,0.196,-0.447,0.066,0.365,0.429,0.217,0.025,0.002,0.008,-0.24,0.057
-0.02,-0.45899999999999996,-0.439,0.239,0.209,-0.449,0.066,0.36700000000000005,0.43,0.21600000000000003,0.022000000000000002,0.002,0.01,-0.245,0.057
0.001,-0.461,-0.462,0.23,0.23199999999999998,-0.462,0.059000000000000004,0.361,0.425,0.209,0.013000000000000001,-0.005,0.013999999999999999,-0.251,0.059000000000000004
0.011000000000000001,-0.466,-0.47700000000000004,0.22699999999999998,0.244,-0.47200000000000003,0.057,0.358,0.42200000000000004,0.20600000000000002,0.011000000000000001,-0.01,0.013000000000000001,-0.24600000000000002,0.057
0.005,-0.46,-0.465,0.22699999999999998,0.235,-0.46299999999999997,0.065,0.36700000000000005,0.429,0.21100000000000002,0.016,-0.004,0.013000000000000001,-0.244,0.053
-0.017,-0.457,-0.44,0.23600000000000002,0.212,-0.449,0.07400000000000001,0.379,0.44,0.21899999999999997,0.022000000000000002,0.002,0.013000000000000001,-0.243,0.053
-0.024,-0.45899999999999996,-0.435,0.24100000000000002,0.20600000000000002,-0.44799999999999995,0.077,0.379,0.441,0.22,0.025,0.003,0.012,-0.24600000000000002,0.05
-0.013000000000000001,-0.455,-0.442,0.23399999999999999,0.214,-0.449,0.08199999999999999,0.385,0.446,0.225,0.026000000000000002,0.004,0.011000000000000001,-0.247,0.048
0.003,-0.445,-0.44799999999999995,0.221,0.226,-0.447,0.085,0.38799999999999996,0.45,0.23,0.026000000000000002,0.004,0.011000000000000001,-0.248,0.047
-0.013000000000000001,-0.455,-0.44299999999999995,0.23399999999999999,0.215,-0.449,0.083,0.385,0.447,0.225,0.026000000000000002,0.004,0.011000000000000001,-0.247,0.048
-0.022000000000000002,-0.45799999999999996,-0.435,0.24,0.207,-0.447,0.08199999999999999,0.385,0.446,0.22399999999999998,0.027999999999999997,0.004,0.011000000000000001,-0.244,0.047
-0.021,-0.447,-0.426,0.23399999999999999,0.203,-0.436,0.086,0.39,0.451,0.228,0.03,0.005,0.011000000000000001,-0.23600000000000002,0.043
-0.033,-0.455,-0.423,0.243,0.196,-0.439,0.087,0.39,0.45299999999999996,0.228,0.03,0.004,0.011000000000000001,-0.233,0.040999999999999995
-0.034,-0.451,-0.41700000000000004,0.242,0.192,-0.434,0.094,0.39399999999999996,0.457,0.231,0.034,0.006,0.01,-0.23399999999999999,0.04
-0.04,-0.45,-0.41,0.244,0.185,-0.43,0.099,0.397,0.45799999999999996,0.233,0.036000000000000004,0.011000000000000001,0.012,-0.231,0.042
-0.018000000000000002,-0.451,-0.43200000000000005,0.235,0.207,-0.442,0.095,0.389,0.451,0.228,0.03,0.006999999999999999,0.013999999999999999,-0.23199999999999998,0.04
-0.011000000000000001,-0.45,-0.44,0.231,0.214,-0.445,0.09699999999999999,0.387,0.44799999999999995,0.22399999999999998,0.028999999999999998,0.005,0.012,-0.231,0.036000000000000004
-0.011000000000000001,-0.44799999999999995,-0.436,0.23,0.213,-0.44299999999999995,0.099,0.39,0.452,0.226,0.031,0.009000000000000001,0.013999999999999999,-0.231,0.035
0.0,-0.434,-0.434,0.217,0.217,-0.434,0.102,0.39399999999999996,0.457,0.23,0.036000000000000004,0.017,0.013999999999999999,-0.231,0.034
-0.003,-0.44,-0.436,0.221,0.217,-0.439,0.102,0.392,0.45399999999999996,0.228,0.035,0.018000000000000002,0.015,-0.237,0.032
-0.013000000000000001,-0.452,-0.439,0.23199999999999998,0.213,-0.446,0.10300000000000001,0.389,0.449,0.225,0.033,0.016,0.017,-0.23600000000000002,0.032
-0.018000000000000002,-0.45,-0.43200000000000005,0.23399999999999999,0.207,-0.441,0.107,0.395,0.45299999999999996,0.22899999999999998,0.035,0.018000000000000002,0.015,-0.226,0.03
-0.018000000000000002,-0.447,-0.428,0.23199999999999998,0.205,-0.43799999999999994,0.11,0.397,0.455,0.23199999999999998,0.04,0.02,0.013999999999999999,-0.228,0.03
-0.02,-0.44299999999999995,-0.423,0.231,0.20199999999999999,-0.433,0.115,0.397,0.456,0.23600000000000002,0.046,0.024,0.013000000000000001,-0.226,0.027999999999999997
-0.022000000000000002,-0.435,-0.413,0.22899999999999998,0.196,-0.424,0.11599999999999999,0.4,0.46,0.23800000000000002,0.048,0.027999999999999997,0.015,-0.223,0.026000000000000002
-0.027999999999999997,-0.43200000000000005,-0.405,0.23,0.18899999999999997,-0.419,0.115,0.39899999999999997,0.457,0.237,0.049,0.026000000000000002,0.015,-0.221,0.026000000000000002
-0.022000000000000002,-0.433,-0.41,0.228,0.195,-0.42200000000000004,0.115,0.395,0.45399999999999996,0.23600000000000002,0.048,0.025,0.015,-0.22,0.021
-0.031,-0.43799999999999994,-0.406,0.23399999999999999,0.188,-0.42200000000000004,0.11699999999999999,0.39399999999999996,0.452,0.23600000000000002,0.05,0.027000000000000003,0.017,-0.21899999999999997,0.02
-0.040999999999999995,-0.431,-0.391,0.23600000000000002,0.175,-0.41100000000000003,0.12,0.395,0.45299999999999996,0.24,0.055999999999999994,0.031,0.013999999999999999,-0.20800000000000002,0.018000000000000002
-0.046,-0.426,-0.38,0.23600000000000002,0.16699999999999998,-0.40299999999999997,0.125,0.395,0.45299999999999996,0.24,0.057999999999999996,0.033,0.011000000000000001,-0.204,0.017
-0.046,-0.43,-0.384,0.23800000000000002,0.17,-0.40700000000000003,0.125,0.392,0.449,0.237,0.055999999999999994,0.032,0.012,-0.21,0.015
-0.042,-0.423,-0.381,0.23199999999999998,0.17,-0.40299999999999997,0.128,0.39299999999999996,0.45,0.239,0.059000000000000004,0.034,0.013000000000000001,-0.204,0.011000000000000001
-0.038,-0.414,-0.375,0.226,0.16899999999999998,-0.395,0.13,0.39399999999999996,0.449,0.24,0.062,0.037000000000000005,0.013000000000000001,-0.19899999999999998,0.011000000000000001
-0.026000000000000002,-0.415,-0.389,0.221,0.18100000000000002,-0.402,0.126,0.386,0.441,0.23399999999999999,0.057,0.032,0.012,-0.201,0.009000000000000001
-0.035,-0.42100000000000004,-0.387,0.228,0.17600000000000002,-0.40399999999999997,0.126,0.382,0.43799999999999994,0.231,0.057,0.031,0.012,-0.19699999999999998,0.009000000000000001
-0.037000000000000005,-0.42200000000000004,-0.386,0.23,0.174,-0.40399999999999997,0.129,0.385,0.43799999999999994,0.23399999999999999,0.06,0.034,0.011000000000000001,-0.198,0.006
-0.035,-0.42100000000000004,-0.385,0.228,0.175,-0.40299999999999997,0.132,0.384,0.436,0.23399999999999999,0.061,0.035,0.009000000000000001,-0.19399999999999998,0.005
-0.04,-0.42100000000000004,-0.382,0.231,0.172,-0.402,0.133,0.382,0.433,0.23399999999999999,0.062,0.038,0.009000000000000001,-0.188,0.004
-0.045,-0.42200000000000004,-0.377,0.23399999999999999,0.166,-0.4,0.136,0.38299999999999995,0.43200000000000005,0.235,0.066,0.038,0.009000000000000001,-0.182,0.001
-0.049,-0.42,-0.37,0.23399999999999999,0.161,-0.396,0.139,0.38299999999999995,0.43,0.235,0.07,0.044000000000000004,0.01,-0.172,0.001
-0.04,-0.41700000000000004,-0.37799999999999995,0.22899999999999998,0.16899999999999998,-0.39799999999999996,0.139,0.377,0.42700000000000005,0.23399999999999999,0.07,0.043,0.009000000000000001,-0.18,-0.001
-0.026000000000000002,-0.40700000000000003,-0.382,0.217,0.177,-0.395,0.142,0.376,0.425,0.23399999999999999,0.07200000000000001,0.044000000000000004,0.01,-0.18600000000000003,-0.005
-0.028999999999999998,-0.396,-0.36700000000000005,0.212,0.17,-0.382,0.149,0.37799999999999995,0.428,0.24,0.081,0.051,0.008,-0.18,-0.006
-0.028999999999999998,-0.389,-0.36,0.20800000000000002,0.166,-0.374,0.15,0.376,0.42700000000000005,0.24100000000000002,0.084,0.054000000000000006,0.006,-0.172,-0.006
-0.033,-0.391,-0.358,0.212,0.163,-0.374,0.147,0.368,0.419,0.23600000000000002,0.08,0.051,0.006999999999999999,-0.17,-0.009000000000000001
-0.064,-0.406,-0.34299999999999997,0.23399999999999999,0.14,-0.374,0.147,0.361,0.41200000000000003,0.23199999999999998,0.079,0.046,0.004,-0.16699999999999998,-0.011000000000000001
-0.054000000000000006,-0.4,-0.345,0.22699999999999998,0.145,-0.373,0.14800000000000002,0.359,0.409,0.23199999999999998,0.08,0.049,0.005,-0.16899999999999998,-0.013000000000000001
-0.054000000000000006,-0.396,-0.341,0.225,0.14300000000000002,-0.368,0.151,0.358,0.41,0.23399999999999999,0.081,0.055,0.006,-0.174,-0.015
-0.06,-0.381,-0.32,0.221,0.13,-0.35,0.162,0.363,0.415,0.24,0.08900000000000001,0.065,0.004,-0.171,-0.013999999999999999
-0.048,-0.36,-0.312,0.203,0.133,-0.337,0.16699999999999998,0.364,0.41600000000000004,0.244,0.099,0.07,0.001,-0.16399999999999998,-0.015
-0.065,-0.377,-0.313,0.221,0.124,-0.345,0.162,0.353,0.40399999999999997,0.23600000000000002,0.092,0.062,-0.001,-0.158,-0.017
-0.081,-0.391,-0.309,0.235,0.115,-0.35,0.158,0.344,0.39399999999999996,0.22699999999999998,0.086,0.057999999999999996,0.003,-0.154,-0.017
-0.08,-0.387,-0.307,0.233,0.114,-0.34700000000000003,0.158,0.34,0.391,0.225,0.087,0.057999999999999996,0.004,-0.15,-0.02
-0.075,-0.376,-0.3,0.226,0.113,-0.33899999999999997,0.165,0.33899999999999997,0.392,0.23,0.09300000000000001,0.064,-0.001,-0.146,-0.022000000000000002
-0.083,-0.375,-0.292,0.22899999999999998,0.105,-0.33399999999999996,0.168,0.33799999999999997,0.391,0.231,0.09699999999999999,0.066,-0.004,-0.141,-0.025
-0.076,-0.375,-0.299,0.226,0.11199999999999999,-0.33799999999999997,0.16699999999999998,0.33399999999999996,0.386,0.231,0.09699999999999999,0.066,-0.005,-0.141,-0.027000000000000003
-0.07400000000000001,-0.377,-0.302,0.226,0.114,-0.34,0.16699999999999998,0.33,0.38,0.226,0.095,0.065,-0.006999999999999999,-0.141,-0.027999999999999997
-0.077,-0.379,-0.301,0.228,0.11199999999999999,-0.34,0.166,0.326,0.373,0.222,0.09300000000000001,0.064,-0.009000000000000001,-0.14300000000000002,-0.028999999999999998
-0.07400000000000001,-0.373,-0.3,0.22399999999999998,0.113,-0.337,0.168,0.325,0.371,0.223,0.095,0.068,-0.006999999999999999,-0.142,-0.028999999999999998
-0.08,-0.377,-0.297,0.22899999999999998,0.109,-0.33799999999999997,0.16899999999999998,0.32299999999999995,0.368,0.221,0.09300000000000001,0.07,-0.008,-0.141,-0.03
-0.084,-0.379,-0.295,0.23199999999999998,0.106,-0.337,0.16699999999999998,0.318,0.365,0.221,0.09300000000000001,0.07200000000000001,-0.006999999999999999,-0.14,-0.033
-0.083,-0.376,-0.293,0.23,0.105,-0.335,0.168,0.312,0.358,0.22,0.094,0.07400000000000001,-0.009000000000000001,-0.134,-0.034
-0.083,-0.374,-0.29100000000000004,0.22899999999999998,0.10400000000000001,-0.33299999999999996,0.172,0.31,0.35600000000000004,0.22,0.098,0.075,-0.011000000000000001,-0.135,-0.035
-0.095,-0.374,-0.28,0.23399999999999999,0.09300000000000001,-0.32799999999999996,0.177,0.311,0.359,0.22399999999999998,0.10400000000000001,0.08,-0.011000000000000001,-0.129,-0.036000000000000004
-0.08,-0.368,-0.28800000000000003,0.22399999999999998,0.10400000000000001,-0.32899999999999996,0.174,0.306,0.35100000000000003,0.22,0.102,0.07400000000000001,-0.013999999999999999,-0.122,-0.038
-0.079,-0.36200000000000004,-0.28300000000000003,0.221,0.102,-0.32299999999999995,0.171,0.29600000000000004,0.344,0.217,0.102,0.07200000000000001,-0.013999999999999999,-0.11699999999999999,-0.040999999999999995
-0.092,-0.36200000000000004,-0.27,0.22699999999999998,0.08900000000000001,-0.317,0.175,0.29600000000000004,0.342,0.217,0.105,0.081,-0.012,-0.115,-0.043
-0.095,-0.36200000000000004,-0.267,0.22899999999999998,0.086,-0.315,0.17600000000000002,0.292,0.34,0.215,0.107,0.084,-0.013000000000000001,-0.11199999999999999,-0.042
-0.086,-0.345,-0.26,0.215,0.087,-0.303,0.18,0.293,0.33899999999999997,0.217,0.113,0.086,-0.015,-0.109,-0.043
-0.075,-0.335,-0.259,0.205,0.092,-0.297,0.18,0.29,0.336,0.21600000000000003,0.114,0.08800000000000001,-0.013000000000000001,-0.105,-0.043
-0.098,-0.348,-0.251,0.223,0.076,-0.3,0.17800000000000002,0.28300000000000003,0.32799999999999996,0.212,0.11,0.086,-0.013999999999999999,-0.102,-0.042
-0.099,-0.34299999999999997,-0.244,0.221,0.073,-0.293,0.18100000000000002,0.28,0.325,0.213,0.114,0.08900000000000001,-0.015,-0.10400000000000001,-0.044000000000000004
-0.09,-0.332,-0.242,0.21100000000000002,0.076,-0.287,0.18100000000000002,0.278,0.32299999999999995,0.213,0.115,0.092,-0.016,-0.096,-0.045
-0.10099999999999999,-0.337,-0.23600000000000002,0.218,0.069,-0.287,0.182,0.275,0.319,0.21,0.115,0.092,-0.018000000000000002,-0.09,-0.046
-0.106,-0.344,-0.237,0.226,0.066,-0.29100000000000004,0.18100000000000002,0.268,0.315,0.20800000000000002,0.115,0.092,-0.018000000000000002,-0.09,-0.045
-0.11,-0.34700000000000003,-0.23800000000000002,0.22899999999999998,0.065,-0.293,0.182,0.265,0.311,0.209,0.115,0.09300000000000001,-0.018000000000000002,-0.09,-0.047
-0.11599999999999999,-0.35200000000000004,-0.23600000000000002,0.23399999999999999,0.06,-0.295,0.18,0.259,0.305,0.204,0.11199999999999999,0.092,-0.018000000000000002,-0.08900000000000001,-0.046
-0.111,-0.34700000000000003,-0.237,0.22899999999999998,0.064,-0.292,0.18,0.256,0.302,0.203,0.11199999999999999,0.09300000000000001,-0.018000000000000002,-0.085,-0.046
-0.102,-0.341,-0.239,0.221,0.07,-0.29,0.182,0.255,0.301,0.204,0.11699999999999999,0.099,-0.018000000000000002,-0.084,-0.045
-0.099,-0.344,-0.244,0.222,0.07200000000000001,-0.294,0.179,0.251,0.295,0.2,0.11699999999999999,0.09300000000000001,-0.02,-0.081,-0.047
-0.11199999999999999,-0.341,-0.22899999999999998,0.226,0.059000000000000004,-0.285,0.187,0.255,0.298,0.205,0.122,0.10099999999999999,-0.021,-0.079,-0.046
-0.10800000000000001,-0.337,-0.22899999999999998,0.223,0.06,-0.28300000000000003,0.187,0.249,0.295,0.204,0.125,0.107,-0.019,-0.081,-0.046
-0.086,-0.322,-0.235,0.203,0.075,-0.27899999999999997,0.18600000000000003,0.247,0.29,0.204,0.127,0.107,-0.021,-0.086,-0.046
-0.084,-0.318,-0.23399999999999999,0.201,0.075,-0.276,0.19,0.251,0.292,0.205,0.13,0.111,-0.023,-0.087,-0.046
-0.102,-0.327,-0.22399999999999998,0.214,0.061,-0.276,0.19,0.24600000000000002,0.28800000000000003,0.20600000000000002,0.131,0.111,-0.022000000000000002,-0.079,-0.05
-0.132,-0.341,-0.20800000000000002,0.23600000000000002,0.038,-0.275,0.183,0.237,0.28,0.20199999999999999,0.131,0.10400000000000001,-0.025,-0.076,-0.049
-0.12,-0.34700000000000003,-0.228,0.23399999999999999,0.054000000000000006,-0.28800000000000003,0.177,0.228,0.271,0.19399999999999998,0.126,0.095,-0.027999999999999997,-0.076,-0.053
-0.105,-0.335,-0.23,0.22,0.062,-0.282,0.182,0.23,0.273,0.19699999999999998,0.129,0.107,-0.024,-0.078,-0.053
-0.11199999999999999,-0.327,-0.215,0.21899999999999997,0.052000000000000005,-0.272,0.182,0.23,0.273,0.19899999999999998,0.132,0.11599999999999999,-0.018000000000000002,-0.079,-0.05
-0.12,-0.33,-0.209,0.225,0.045,-0.27,0.18100000000000002,0.226,0.26899999999999996,0.19699999999999998,0.132,0.114,-0.019,-0.07400000000000001,-0.051
-0.146,-0.33799999999999997,-0.191,0.242,0.022000000000000002,-0.265,0.182,0.22399999999999998,0.267,0.19699999999999998,0.135,0.11699999999999999,-0.021,-0.073,-0.05
-0.161,-0.342,-0.18100000000000002,0.251,0.011000000000000001,-0.262,0.182,0.221,0.265,0.19899999999999998,0.139,0.11900000000000001,-0.022000000000000002,-0.071,-0.05
-0.13699999999999998,-0.33799999999999997,-0.2,0.237,0.032,-0.26899999999999996,0.177,0.212,0.26,0.19399999999999998,0.136,0.115,-0.021,-0.065,-0.053
-0.132,-0.33,-0.19899999999999998,0.231,0.034,-0.265,0.175,0.209,0.256,0.192,0.135,0.113,-0.022000000000000002,-0.068,-0.053
-0.142,-0.332,-0.18899999999999997,0.237,0.023,-0.26,0.17800000000000002,0.209,0.256,0.193,0.138,0.113,-0.026000000000000002,-0.071,-0.053
-0.14400000000000002,-0.337,-0.193,0.24,0.025,-0.265,0.177,0.20600000000000002,0.254,0.191,0.139,0.11599999999999999,-0.026000000000000002,-0.07200000000000001,-0.054000000000000006
-0.15,-0.33799999999999997,-0.188,0.243,0.019,-0.263,0.18,0.20600000000000002,0.252,0.192,0.14,0.12300000000000001,-0.022000000000000002,-0.079,-0.054000000000000006
-0.14,-0.337,-0.198,0.23800000000000002,0.028999999999999998,-0.268,0.17600000000000002,0.201,0.24600000000000002,0.188,0.13699999999999998,0.122,-0.021,-0.078,-0.055
-0.13,-0.335,-0.204,0.233,0.037000000000000005,-0.27,0.17300000000000001,0.196,0.242,0.184,0.136,0.11900000000000001,-0.022000000000000002,-0.075,-0.054000000000000006
-0.126,-0.33299999999999996,-0.20600000000000002,0.23,0.04,-0.27,0.175,0.196,0.24100000000000002,0.185,0.139,0.12,-0.023,-0.08,-0.054000000000000006
-0.131,-0.331,-0.2,0.231,0.035,-0.266,0.17800000000000002,0.195,0.242,0.18899999999999997,0.14400000000000002,0.124,-0.024,-0.073,-0.054000000000000006
-0.12,-0.32799999999999996,-0.207,0.22399999999999998,0.043,-0.268,0.17600000000000002,0.188,0.23399999999999999,0.184,0.142,0.12,-0.026000000000000002,-0.07,-0.055999999999999994
-0.11699999999999999,-0.33,-0.212,0.22399999999999998,0.048,-0.272,0.174,0.188,0.23399999999999999,0.182,0.141,0.114,-0.033,-0.07400000000000001,-0.054000000000000006
-0.11900000000000001,-0.324,-0.204,0.222,0.043,-0.265,0.177,0.192,0.239,0.18899999999999997,0.14400000000000002,0.11900000000000001,-0.032,-0.07200000000000001,-0.053
-0.124,-0.327,-0.203,0.226,0.04,-0.265,0.174,0.185,0.233,0.184,0.141,0.11699999999999999,-0.032,-0.07,-0.057
-0.153,-0.33799999999999997,-0.185,0.24600000000000002,0.016,-0.262,0.17300000000000001,0.179,0.22899999999999998,0.18,0.139,0.12,-0.03,-0.06,-0.054000000000000006
-0.161,-0.336,-0.174,0.248,0.006999999999999999,-0.255,0.17300000000000001,0.17800000000000002,0.22899999999999998,0.182,0.141,0.12300000000000001,-0.028999999999999998,-0.055,-0.055
-0.153,-0.335,-0.182,0.244,0.015,-0.259,0.17300000000000001,0.179,0.22699999999999998,0.18,0.141,0.121,-0.03,-0.057999999999999996,-0.055999999999999994
-0.146,-0.33399999999999996,-0.187,0.24,0.021,-0.261,0.17,0.177,0.22399999999999998,0.17600000000000002,0.14,0.124,-0.028999999999999998,-0.055999999999999994,-0.054000000000000006
-0.149,-0.32899999999999996,-0.18,0.239,0.016,-0.255,0.16699999999999998,0.175,0.225,0.179,0.14300000000000002,0.124,-0.028999999999999998,-0.053,-0.055999999999999994
-0.16,-0.33,-0.17,0.244,0.005,-0.25,0.171,0.174,0.223,0.179,0.14400000000000002,0.125,-0.028999999999999998,-0.057,-0.054000000000000006
-0.171,-0.33299999999999996,-0.162,0.252,-0.004,-0.247,0.175,0.175,0.221,0.179,0.14400000000000002,0.127,-0.032,-0.069,-0.054000000000000006
-0.165,-0.32899999999999996,-0.16399999999999998,0.24600000000000002,-0.001,-0.24600000000000002,0.174,0.17600000000000002,0.222,0.179,0.145,0.127,-0.034,-0.063,-0.057
-0.16699999999999998,-0.325,-0.158,0.245,-0.004,-0.24100000000000002,0.174,0.17600000000000002,0.221,0.179,0.14400000000000002,0.129,-0.031,-0.06,-0.055999999999999994
-0.157,-0.331,-0.17300000000000001,0.243,0.009000000000000001,-0.252,0.171,0.171,0.21600000000000003,0.17600000000000002,0.141,0.126,-0.03,-0.061,-0.054000000000000006
-0.135,-0.33399999999999996,-0.19899999999999998,0.23399999999999999,0.033,-0.267,0.16399999999999998,0.16399999999999998,0.209,0.172,0.136,0.122,-0.027999999999999997,-0.06,-0.057999999999999996
-0.141,-0.33299999999999996,-0.192,0.23600000000000002,0.025,-0.262,0.16399999999999998,0.16699999999999998,0.21100000000000002,0.172,0.139,0.124,-0.028999999999999998,-0.064,-0.057
-0.14300000000000002,-0.33399999999999996,-0.19,0.23800000000000002,0.024,-0.262,0.163,0.166,0.21,0.172,0.14,0.12300000000000001,-0.028999999999999998,-0.06,-0.055999999999999994
-0.151,-0.33799999999999997,-0.18600000000000003,0.244,0.018000000000000002,-0.263,0.163,0.16399999999999998,0.209,0.172,0.142,0.124,-0.03,-0.059000000000000004,-0.054000000000000006
-0.157,-0.33899999999999997,-0.18100000000000002,0.248,0.013000000000000001,-0.261,0.165,0.168,0.212,0.174,0.14400000000000002,0.127,-0.03,-0.062,-0.052000000000000005
-0.16,-0.342,-0.182,0.251,0.011000000000000001,-0.262,0.168,0.17,0.213,0.177,0.146,0.131,-0.027999999999999997,-0.065,-0.051
-0.14,-0.33799999999999997,-0.198,0.23800000000000002,0.028999999999999998,-0.268,0.16399999999999998,0.165,0.21,0.177,0.142,0.127,-0.027999999999999997,-0.065,-0.053
-0.126,-0.33,-0.203,0.228,0.039,-0.267,0.165,0.165,0.209,0.175,0.146,0.129,-0.026000000000000002,-0.07400000000000001,-0.053
-0.147,-0.335,-0.188,0.24100000000000002,0.021,-0.262,0.16699999999999998,0.165,0.21,0.177,0.15,0.132,-0.026000000000000002,-0.073,-0.053
-0.146,-0.337,-0.19,0.24100000000000002,0.022000000000000002,-0.264,0.16,0.161,0.207,0.175,0.146,0.127,-0.028999999999999998,-0.068,-0.057
-0.152,-0.33299999999999996,-0.18,0.242,0.015,-0.257,0.159,0.161,0.207,0.174,0.147,0.129,-0.028999999999999998,-0.064,-0.054000000000000006
-0.163,-0.335,-0.172,0.248,0.005,-0.254,0.161,0.162,0.209,0.177,0.149,0.133,-0.028999999999999998,-0.057,-0.054000000000000006
-0.171,-0.33899999999999997,-0.168,0.255,-0.001,-0.254,0.163,0.165,0.209,0.17800000000000002,0.151,0.132,-0.03,-0.063,-0.055999999999999994
-0.172,-0.33399999999999996,-0.163,0.253,-0.004,-0.248,0.161,0.165,0.209,0.17800000000000002,0.151,0.131,-0.03,-0.067,-0.057
-0.165,-0.32799999999999996,-0.163,0.24600000000000002,-0.001,-0.245,0.155,0.162,0.209,0.177,0.15,0.131,-0.028999999999999998,-0.064,-0.057
-0.183,-0.32899999999999996,-0.145,0.256,-0.019,-0.237,0.16,0.16399999999999998,0.207,0.17800000000000002,0.155,0.133,-0.03,-0.062,-0.055
-0.188,-0.331,-0.142,0.26,-0.022000000000000002,-0.237,0.162,0.163,0.204,0.177,0.153,0.131,-0.033,-0.062,-0.055
-0.172,-0.32899999999999996,-0.158,0.25,-0.006,-0.243,0.154,0.157,0.201,0.172,0.147,0.125,-0.032,-0.045,-0.055
-0.17600000000000002,-0.327,-0.151,0.252,-0.012,-0.239,0.153,0.156,0.2,0.171,0.147,0.127,-0.028999999999999998,-0.04,-0.053
-0.172,-0.33,-0.158,0.251,-0.006999999999999999,-0.244,0.15,0.155,0.2,0.172,0.147,0.129,-0.03,-0.049,-0.052000000000000005
-0.168,-0.33299999999999996,-0.166,0.25,-0.001,-0.249,0.151,0.156,0.2,0.172,0.14800000000000002,0.13,-0.028999999999999998,-0.054000000000000006,-0.052000000000000005
-0.172,-0.33299999999999996,-0.161,0.253,-0.005,-0.247,0.155,0.156,0.2,0.172,0.149,0.133,-0.03,-0.055999999999999994,-0.052000000000000005
-0.171,-0.332,-0.162,0.251,-0.004,-0.247,0.155,0.156,0.19899999999999998,0.17300000000000001,0.14800000000000002,0.132,-0.032,-0.051,-0.053
-0.16699999999999998,-0.336,-0.17,0.252,0.002,-0.253,0.15,0.153,0.19699999999999998,0.171,0.146,0.13,-0.03,-0.05,-0.053
-0.16,-0.336,-0.17600000000000002,0.248,0.009000000000000001,-0.257,0.149,0.153,0.19699999999999998,0.172,0.146,0.13,-0.028999999999999998,-0.054000000000000006,-0.055
-0.161,-0.33,-0.17,0.245,0.004,-0.249,0.154,0.156,0.20199999999999999,0.177,0.151,0.134,-0.028999999999999998,-0.055,-0.055
-0.168,-0.337,-0.16899999999999998,0.253,0.001,-0.253,0.152,0.154,0.19899999999999998,0.175,0.151,0.135,-0.027000000000000003,-0.049,-0.054000000000000006
-0.191,-0.34600000000000003,-0.155,0.26899999999999996,-0.018000000000000002,-0.251,0.156,0.159,0.203,0.18,0.154,0.13699999999999998,-0.027999999999999997,-0.052000000000000005,-0.054000000000000006
-0.184,-0.342,-0.157,0.263,-0.013999999999999999,-0.249,0.158,0.157,0.20199999999999999,0.179,0.154,0.138,-0.027999999999999997,-0.05,-0.053
-0.162,-0.331,-0.16899999999999998,0.24600000000000002,0.004,-0.25,0.155,0.155,0.19699999999999998,0.17600000000000002,0.152,0.136,-0.026000000000000002,-0.048,-0.053
-0.177,-0.32799999999999996,-0.15,0.252,-0.013000000000000001,-0.239,0.157,0.16,0.20600000000000002,0.182,0.158,0.141,-0.025,-0.051,-0.052000000000000005
-0.2,-0.34,-0.141,0.27,-0.028999999999999998,-0.24,0.155,0.157,0.20600000000000002,0.18100000000000002,0.158,0.141,-0.025,-0.046,-0.053
-0.19699999999999998,-0.344,-0.14800000000000002,0.271,-0.024,-0.24600000000000002,0.151,0.155,0.20199999999999999,0.17800000000000002,0.155,0.139,-0.025,-0.044000000000000004,-0.054000000000000006
-0.18600000000000003,-0.33799999999999997,-0.151,0.262,-0.018000000000000002,-0.244,0.149,0.155,0.201,0.17600000000000002,0.154,0.14,-0.024,-0.048,-0.054000000000000006
-0.188,-0.337,-0.149,0.263,-0.019,-0.243,0.146,0.152,0.198,0.174,0.151,0.13699999999999998,-0.025,-0.048,-0.055999999999999994
-0.184,-0.33299999999999996,-0.149,0.259,-0.018000000000000002,-0.24100000000000002,0.141,0.14800000000000002,0.195,0.172,0.149,0.135,-0.025,-0.038,-0.057
-0.18100000000000002,-0.331,-0.149,0.256,-0.015,-0.24,0.14,0.14800000000000002,0.195,0.172,0.151,0.134,-0.026000000000000002,-0.039,-0.055999999999999994
-0.184,-0.32899999999999996,-0.14400000000000002,0.257,-0.02,-0.23600000000000002,0.141,0.149,0.196,0.17300000000000001,0.152,0.138,-0.025,-0.042,-0.057
-0.203,-0.327,-0.124,0.265,-0.039,-0.226,0.14800000000000002,0.153,0.20199999999999999,0.17800000000000002,0.155,0.14300000000000002,-0.024,-0.04,-0.059000000000000004
-0.19399999999999998,-0.32299999999999995,-0.13,0.258,-0.032,-0.22699999999999998,0.14800000000000002,0.154,0.203,0.179,0.157,0.14400000000000002,-0.026000000000000002,-0.037000000000000005,-0.055999999999999994
-0.172,-0.318,-0.146,0.245,-0.013000000000000001,-0.23199999999999998,0.14300000000000002,0.152,0.2,0.17600000000000002,0.152,0.14300000000000002,-0.025,-0.038,-0.057
-0.19,-0.326,-0.13699999999999998,0.258,-0.026000000000000002,-0.23199999999999998,0.14300000000000002,0.152,0.2,0.175,0.151,0.14400000000000002,-0.024,-0.04,-0.057
-0.191,-0.33399999999999996,-0.14300000000000002,0.262,-0.024,-0.23800000000000002,0.136,0.145,0.195,0.171,0.149,0.139,-0.025,-0.043,-0.057
-0.17,-0.33,-0.161,0.249,-0.004,-0.245,0.136,0.142,0.192,0.16899999999999998,0.14800000000000002,0.138,-0.022000000000000002,-0.048,-0.057
-0.16399999999999998,-0.32799999999999996,-0.16399999999999998,0.24600000000000002,0.0,-0.24600000000000002,0.138,0.146,0.19399999999999998,0.171,0.15,0.141,-0.021,-0.045,-0.055999999999999994
-0.168,-0.33399999999999996,-0.166,0.251,-0.001,-0.25,0.135,0.145,0.193,0.172,0.151,0.139,-0.021,-0.040999999999999995,-0.059000000000000004
-0.16899999999999998,-0.33399999999999996,-0.165,0.252,-0.002,-0.25,0.141,0.147,0.195,0.174,0.153,0.139,-0.021,-0.044000000000000004,-0.06
-0.17800000000000002,-0.335,-0.157,0.257,-0.011000000000000001,-0.24600000000000002,0.141,0.145,0.196,0.17600000000000002,0.153,0.139,-0.024,-0.049,-0.057
-0.172,-0.332,-0.16,0.252,-0.006,-0.245,0.14,0.147,0.2,0.17800000000000002,0.153,0.14,-0.024,-0.047,-0.055999999999999994
-0.174,-0.325,-0.151,0.249,-0.011000000000000001,-0.23800000000000002,0.142,0.149,0.2,0.179,0.152,0.141,-0.021,-0.043,-0.057
-0.2,-0.332,-0.132,0.266,-0.034,-0.23199999999999998,0.14,0.14800000000000002,0.19899999999999998,0.17800000000000002,0.151,0.141,-0.021,-0.032,-0.057
-0.204,-0.337,-0.133,0.271,-0.035,-0.235,0.139,0.14400000000000002,0.196,0.17800000000000002,0.149,0.141,-0.023,-0.028999999999999998,-0.057999999999999996
-0.183,-0.318,-0.135,0.25,-0.024,-0.226,0.14300000000000002,0.147,0.198,0.18,0.154,0.14800000000000002,-0.021,-0.03,-0.057999999999999996
-0.165,-0.301,-0.136,0.233,-0.015,-0.21899999999999997,0.141,0.14800000000000002,0.203,0.183,0.16,0.15,-0.019,-0.027000000000000003,-0.055999999999999994
-0.18100000000000002,-0.319,-0.13699999999999998,0.25,-0.022000000000000002,-0.228,0.132,0.138,0.192,0.175,0.153,0.141,-0.021,-0.025,-0.059000000000000004
-0.171,-0.302,-0.131,0.237,-0.019,-0.217,0.13699999999999998,0.14400000000000002,0.19699999999999998,0.17800000000000002,0.158,0.146,-0.021,-0.023,-0.061
-0.17,-0.294,-0.125,0.233,-0.022000000000000002,-0.21,0.139,0.147,0.20199999999999999,0.185,0.163,0.15,-0.021,-0.027999999999999997,-0.059000000000000004
-0.2,-0.32,-0.12,0.26,-0.039,-0.221,0.133,0.139,0.19399999999999998,0.175,0.155,0.14400000000000002,-0.021,-0.031,-0.059000000000000004
-0.19399999999999998,-0.307,-0.114,0.251,-0.04,-0.21,0.13699999999999998,0.14400000000000002,0.19699999999999998,0.17800000000000002,0.161,0.14800000000000002,-0.019,-0.03,-0.06
-0.18600000000000003,-0.306,-0.11900000000000001,0.24600000000000002,-0.034,-0.213,0.135,0.14300000000000002,0.195,0.17800000000000002,0.16,0.15,-0.019,-0.032,-0.059000000000000004
-0.182,-0.313,-0.131,0.248,-0.026000000000000002,-0.222,0.133,0.14,0.19,0.172,0.152,0.145,-0.021,-0.03,-0.059000000000000004
-0.17800000000000002,-0.306,-0.128,0.242,-0.025,-0.217,0.133,0.141,0.192,0.174,0.157,0.147,-0.021,-0.032,-0.059000000000000004
-0.174,-0.305,-0.131,0.239,-0.021,-0.218,0.13,0.139,0.191,0.17300000000000001,0.157,0.14800000000000002,-0.017,-0.031,-0.059000000000000004
-0.17300000000000001,-0.305,-0.133,0.239,-0.02,-0.21899999999999997,0.128,0.13699999999999998,0.19,0.174,0.158,0.149,-0.017,-0.026000000000000002,-0.061
-0.17600000000000002,-0.305,-0.129,0.24100000000000002,-0.024,-0.217,0.132,0.14,0.19399999999999998,0.17800000000000002,0.163,0.153,-0.018000000000000002,-0.032,-0.063
-0.17600000000000002,-0.304,-0.129,0.24,-0.024,-0.21600000000000003,0.132,0.139,0.196,0.18100000000000002,0.166,0.153,-0.018000000000000002,-0.028999999999999998,-0.063
-0.175,-0.31,-0.136,0.243,-0.019,-0.22399999999999998,0.128,0.133,0.192,0.17800000000000002,0.16399999999999998,0.146,-0.02,-0.03,-0.065
-0.179,-0.311,-0.133,0.245,-0.023,-0.222,0.128,0.134,0.191,0.17800000000000002,0.165,0.146,-0.021,-0.03,-0.063
-0.174,-0.301,-0.128,0.23800000000000002,-0.024,-0.214,0.129,0.135,0.195,0.18100000000000002,0.168,0.156,-0.018000000000000002,-0.02,-0.062
-0.17800000000000002,-0.304,-0.126,0.24100000000000002,-0.026000000000000002,-0.215,0.126,0.134,0.193,0.18,0.16699999999999998,0.159,-0.015,-0.017,-0.063
-0.188,-0.306,-0.11800000000000001,0.247,-0.035,-0.212,0.12300000000000001,0.129,0.191,0.177,0.166,0.155,-0.015,-0.02,-0.064
-0.18600000000000003,-0.3,-0.115,0.243,-0.035,-0.20800000000000002,0.11900000000000001,0.13,0.193,0.18,0.17,0.157,-0.013999999999999999,-0.022000000000000002,-0.066
-0.19399999999999998,-0.303,-0.11,0.248,-0.042,-0.20600000000000002,0.121,0.131,0.191,0.18100000000000002,0.17,0.157,-0.018000000000000002,-0.015,-0.065
-0.19399999999999998,-0.299,-0.105,0.24600000000000002,-0.044000000000000004,-0.20199999999999999,0.128,0.13,0.188,0.18100000000000002,0.17,0.155,-0.022000000000000002,-0.015,-0.066
-0.195,-0.293,-0.098,0.244,-0.048,-0.196,0.125,0.127,0.188,0.182,0.172,0.157,-0.021,-0.006,-0.065
-0.2,-0.29600000000000004,-0.09699999999999999,0.248,-0.051,-0.19699999999999998,0.122,0.121,0.183,0.17800000000000002,0.168,0.157,-0.016,-0.003,-0.064
-0.193,-0.287,-0.095,0.239,-0.049,-0.191,0.122,0.121,0.182,0.179,0.17,0.158,-0.013000000000000001,-0.006,-0.064
-0.195,-0.285,-0.09,0.24,-0.051,-0.188,0.12300000000000001,0.12300000000000001,0.18600000000000003,0.182,0.171,0.159,-0.018000000000000002,0.002,-0.064
-0.196,-0.285,-0.09,0.24,-0.052000000000000005,-0.188,0.122,0.124,0.184,0.18100000000000002,0.16899999999999998,0.158,-0.017,-0.004,-0.064
-0.192,-0.281,-0.08900000000000001,0.23600000000000002,-0.051,-0.185,0.122,0.121,0.182,0.182,0.16899999999999998,0.157,-0.017,-0.004,-0.063
-0.2,-0.293,-0.094,0.24600000000000002,-0.052000000000000005,-0.19399999999999998,0.11800000000000001,0.11599999999999999,0.179,0.17800000000000002,0.165,0.153,-0.015,-0.002,-0.065
-0.195,-0.28800000000000003,-0.09300000000000001,0.24100000000000002,-0.051,-0.191,0.11699999999999999,0.11699999999999999,0.177,0.177,0.165,0.152,-0.015,0.002,-0.065
-0.18,-0.27399999999999997,-0.09300000000000001,0.22699999999999998,-0.043,-0.184,0.12,0.11699999999999999,0.177,0.179,0.166,0.156,-0.017,0.005,-0.066
-0.18100000000000002,-0.27899999999999997,-0.09699999999999999,0.23,-0.042,-0.188,0.12,0.115,0.175,0.179,0.16699999999999998,0.157,-0.017,-0.001,-0.066
-0.18100000000000002,-0.28300000000000003,-0.102,0.233,-0.039,-0.193,0.11900000000000001,0.114,0.17600000000000002,0.17800000000000002,0.16699999999999998,0.155,-0.015,-0.005,-0.067
-0.182,-0.284,-0.102,0.23399999999999999,-0.040999999999999995,-0.193,0.11699999999999999,0.111,0.175,0.179,0.168,0.155,-0.013999999999999999,-0.006999999999999999,-0.069
-0.18100000000000002,-0.285,-0.10300000000000001,0.233,-0.039,-0.19399999999999998,0.114,0.107,0.171,0.17800000000000002,0.16699999999999998,0.155,-0.015,-0.009000000000000001,-0.07
-0.18100000000000002,-0.285,-0.10400000000000001,0.23399999999999999,-0.038,-0.195,0.111,0.10300000000000001,0.168,0.175,0.16699999999999998,0.153,-0.015,-0.009000000000000001,-0.069
-0.18100000000000002,-0.282,-0.10099999999999999,0.23199999999999998,-0.04,-0.192,0.111,0.10400000000000001,0.17,0.17800000000000002,0.16899999999999998,0.158,-0.013000000000000001,-0.002,-0.07
-0.17800000000000002,-0.273,-0.095,0.226,-0.042,-0.184,0.11199999999999999,0.105,0.174,0.182,0.171,0.16,-0.011000000000000001,0.009000000000000001,-0.07
-0.188,-0.26899999999999996,-0.08199999999999999,0.228,-0.052000000000000005,-0.175,0.11,0.10300000000000001,0.171,0.18100000000000002,0.17,0.16,-0.011000000000000001,0.019,-0.068
-0.191,-0.27,-0.079,0.23,-0.055,-0.174,0.11,0.102,0.168,0.18,0.172,0.16399999999999998,-0.009000000000000001,0.024,-0.07
-0.192,-0.267,-0.07400000000000001,0.23,-0.059000000000000004,-0.171,0.109,0.099,0.168,0.18,0.174,0.16399999999999998,-0.011000000000000001,0.015,-0.07200000000000001
-0.203,-0.263,-0.06,0.233,-0.071,-0.162,0.11,0.1,0.16899999999999998,0.18100000000000002,0.175,0.166,-0.015,0.012,-0.071
-0.19899999999999998,-0.262,-0.062,0.23,-0.068,-0.163,0.107,0.09699999999999999,0.165,0.17800000000000002,0.17300000000000001,0.163,-0.013000000000000001,0.02,-0.071
-0.198,-0.264,-0.066,0.231,-0.066,-0.165,0.10300000000000001,0.08900000000000001,0.161,0.17600000000000002,0.17,0.158,-0.015,0.021,-0.071
-0.201,-0.25,-0.05,0.226,-0.075,-0.15,0.11,0.09699999999999999,0.168,0.182,0.18,0.166,-0.016,0.024,-0.07200000000000001
-0.198,-0.245,-0.048,0.222,-0.075,-0.147,0.11,0.099,0.168,0.183,0.183,0.165,-0.018000000000000002,0.018000000000000002,-0.073
-0.228,-0.263,-0.035,0.245,-0.096,-0.149,0.105,0.095,0.165,0.183,0.18100000000000002,0.163,-0.02,0.011000000000000001,-0.07200000000000001
-0.23,-0.271,-0.042,0.25,-0.094,-0.157,0.10400000000000001,0.092,0.162,0.18100000000000002,0.179,0.161,-0.019,0.025,-0.07400000000000001
-0.22899999999999998,-0.27399999999999997,-0.045,0.252,-0.091,-0.16,0.1,0.091,0.161,0.18,0.17600000000000002,0.157,-0.022000000000000002,0.028999999999999998,-0.07400000000000001
-0.217,-0.27899999999999997,-0.061,0.248,-0.078,-0.17,0.09300000000000001,0.083,0.153,0.174,0.171,0.151,-0.022000000000000002,0.025,-0.07400000000000001
-0.183,-0.273,-0.09,0.228,-0.046,-0.18100000000000002,0.084,0.07400000000000001,0.14300000000000002,0.16699999999999998,0.16399999999999998,0.14800000000000002,-0.019,0.027000000000000003,-0.075
-0.191,-0.27,-0.079,0.23,-0.055999999999999994,-0.174,0.091,0.084,0.151,0.17300000000000001,0.172,0.159,-0.018000000000000002,0.024,-0.077
-0.185,-0.271,-0.085,0.228,-0.05,-0.17800000000000002,0.09300000000000001,0.08800000000000001,0.158,0.17800000000000002,0.175,0.162,-0.017,0.02,-0.081
-0.183,-0.272,-0.08800000000000001,0.22699999999999998,-0.047,-0.18,0.09,0.086,0.156,0.17800000000000002,0.175,0.159,-0.018000000000000002,0.019,-0.081
-0.174,-0.268,-0.09300000000000001,0.221,-0.040999999999999995,-0.18,0.091,0.08,0.149,0.177,0.17800000000000002,0.156,-0.018000000000000002,0.019,-0.081
-0.184,-0.263,-0.079,0.22399999999999998,-0.053,-0.171,0.09699999999999999,0.08199999999999999,0.149,0.17800000000000002,0.183,0.166,-0.018000000000000002,0.02,-0.079
-0.192,-0.251,-0.059000000000000004,0.221,-0.066,-0.155,0.107,0.095,0.161,0.188,0.19399999999999998,0.179,-0.018000000000000002,0.022000000000000002,-0.081
-0.18100000000000002,-0.239,-0.059000000000000004,0.21,-0.061,-0.149,0.10400000000000001,0.096,0.166,0.19399999999999998,0.198,0.18100000000000002,-0.017,0.027999999999999997,-0.08199999999999999
-0.196,-0.249,-0.054000000000000006,0.223,-0.07,-0.152,0.09699999999999999,0.086,0.158,0.18600000000000003,0.19,0.175,-0.017,0.027999999999999997,-0.083
-0.19399999999999998,-0.263,-0.069,0.228,-0.062,-0.166,0.09,0.076,0.146,0.17600000000000002,0.18100000000000002,0.168,-0.015,0.025,-0.084
-0.19699999999999998,-0.27,-0.073,0.233,-0.061,-0.172,0.085,0.069,0.14,0.168,0.175,0.16399999999999998,-0.015,0.033,-0.084
-0.193,-0.267,-0.073,0.23,-0.059000000000000004,-0.17,0.084,0.07,0.14,0.168,0.17600000000000002,0.162,-0.018000000000000002,0.034,-0.086
-0.192,-0.253,-0.061,0.222,-0.065,-0.157,0.086,0.075,0.146,0.175,0.183,0.16899999999999998,-0.017,0.037000000000000005,-0.083
-0.203,-0.253,-0.049,0.228,-0.077,-0.151,0.08800000000000001,0.076,0.147,0.17800000000000002,0.184,0.172,-0.017,0.035,-0.081
-0.20800000000000002,-0.257,-0.049,0.233,-0.079,-0.153,0.086,0.073,0.146,0.179,0.182,0.172,-0.018000000000000002,0.032,-0.081
-0.19399999999999998,-0.244,-0.051,0.21899999999999997,-0.071,-0.147,0.08800000000000001,0.075,0.14800000000000002,0.18100000000000002,0.18600000000000003,0.17600000000000002,-0.013999999999999999,0.032,-0.08
-0.196,-0.244,-0.048,0.22,-0.073,-0.146,0.09,0.073,0.145,0.18100000000000002,0.188,0.17600000000000002,-0.016,0.028999999999999998,-0.078
-0.20600000000000002,-0.255,-0.049,0.231,-0.078,-0.152,0.085,0.067,0.14300000000000002,0.179,0.183,0.172,-0.018000000000000002,0.035,-0.081
-0.188,-0.239,-0.051,0.214,-0.068,-0.146,0.092,0.07200000000000001,0.14800000000000002,0.185,0.191,0.17800000000000002,-0.015,0.033,-0.084
-0.185,-0.23,-0.045,0.207,-0.07,-0.138,0.091,0.07400000000000001,0.14800000000000002,0.18600000000000003,0.19399999999999998,0.18,-0.015,0.035,-0.081
-0.217,-0.256,-0.038,0.23600000000000002,-0.08900000000000001,-0.147,0.08199999999999999,0.066,0.14,0.17800000000000002,0.184,0.171,-0.015,0.03,-0.081
-0.23399999999999999,-0.267,-0.033,0.251,-0.10099999999999999,-0.15,0.084,0.067,0.139,0.177,0.185,0.172,-0.015,0.028999999999999998,-0.081
-0.175,-0.244,-0.07,0.209,-0.052000000000000005,-0.157,0.08,0.067,0.139,0.17600000000000002,0.183,0.17,-0.013000000000000001,0.035,-0.08199999999999999
-0.151,-0.23399999999999999,-0.083,0.193,-0.034,-0.159,0.077,0.064,0.136,0.174,0.182,0.16899999999999998,-0.013000000000000001,0.038,-0.081
-0.18,-0.243,-0.063,0.212,-0.059000000000000004,-0.153,0.081,0.062,0.133,0.172,0.183,0.171,-0.013000000000000001,0.036000000000000004,-0.08
-0.184,-0.247,-0.063,0.215,-0.06,-0.155,0.083,0.061,0.132,0.17300000000000001,0.185,0.171,-0.015,0.037000000000000005,-0.079
-0.188,-0.245,-0.057999999999999996,0.21600000000000003,-0.065,-0.151,0.084,0.064,0.135,0.177,0.19,0.177,-0.013999999999999999,0.037000000000000005,-0.081
-0.185,-0.237,-0.052000000000000005,0.21100000000000002,-0.067,-0.14400000000000002,0.08199999999999999,0.066,0.138,0.18,0.192,0.17800000000000002,-0.012,0.037000000000000005,-0.083
-0.183,-0.23399999999999999,-0.051,0.209,-0.066,-0.142,0.08,0.062,0.135,0.17800000000000002,0.192,0.179,-0.011000000000000001,0.045,-0.08
-0.18600000000000003,-0.237,-0.051,0.21100000000000002,-0.068,-0.14400000000000002,0.08199999999999999,0.062,0.135,0.177,0.193,0.179,-0.011000000000000001,0.040999999999999995,-0.081
-0.19,-0.23600000000000002,-0.046,0.213,-0.071,-0.141,0.085,0.063,0.13699999999999998,0.182,0.198,0.17600000000000002,-0.013000000000000001,0.045,-0.083
-0.195,-0.23399999999999999,-0.04,0.214,-0.077,-0.13699999999999998,0.083,0.059000000000000004,0.135,0.182,0.198,0.18,-0.012,0.06,-0.083
-0.19399999999999998,-0.22899999999999998,-0.035,0.21100000000000002,-0.079,-0.132,0.08199999999999999,0.057999999999999996,0.134,0.18,0.195,0.18100000000000002,-0.011000000000000001,0.055,-0.084
-0.19,-0.225,-0.035,0.207,-0.077,-0.13,0.08199999999999999,0.057,0.13,0.179,0.196,0.179,-0.013999999999999999,0.051,-0.086
-0.18899999999999997,-0.22,-0.03,0.204,-0.079,-0.126,0.087,0.059000000000000004,0.133,0.183,0.201,0.18100000000000002,-0.013999999999999999,0.053,-0.085
-0.188,-0.217,-0.028999999999999998,0.20199999999999999,-0.079,-0.12300000000000001,0.086,0.061,0.138,0.185,0.204,0.18100000000000002,-0.013000000000000001,0.055999999999999994,-0.086
-0.193,-0.222,-0.028999999999999998,0.207,-0.08199999999999999,-0.126,0.085,0.059000000000000004,0.136,0.184,0.204,0.182,-0.013000000000000001,0.045,-0.086
-0.18,-0.213,-0.034,0.19699999999999998,-0.073,-0.124,0.08900000000000001,0.061,0.13699999999999998,0.187,0.207,0.18600000000000003,-0.013999999999999999,0.040999999999999995,-0.086
-0.17300000000000001,-0.21,-0.037000000000000005,0.192,-0.068,-0.124,0.08800000000000001,0.063,0.138,0.18899999999999997,0.21,0.183,-0.015,0.040999999999999995,-0.08800000000000001
-0.192,-0.223,-0.03,0.207,-0.081,-0.127,0.08199999999999999,0.055,0.132,0.184,0.204,0.183,-0.013000000000000001,0.048,-0.086
-0.19,-0.222,-0.032,0.205,-0.079,-0.127,0.081,0.053,0.132,0.182,0.20199999999999999,0.187,-0.01,0.053,-0.086
-0.17300000000000001,-0.212,-0.039,0.193,-0.067,-0.126,0.084,0.055999999999999994,0.134,0.18600000000000003,0.207,0.19,-0.011000000000000001,0.05,-0.086
-0.174,-0.217,-0.043,0.196,-0.065,-0.131,0.08199999999999999,0.054000000000000006,0.132,0.18600000000000003,0.207,0.18899999999999997,-0.011000000000000001,0.044000000000000004,-0.086
-0.188,-0.22899999999999998,-0.042,0.20800000000000002,-0.073,-0.136,0.08199999999999999,0.052000000000000005,0.131,0.183,0.204,0.18600000000000003,-0.009000000000000001,0.05,-0.086
-0.188,-0.226,-0.039,0.20600000000000002,-0.07400000000000001,-0.133,0.085,0.054000000000000006,0.133,0.18600000000000003,0.205,0.18899999999999997,-0.01,0.048,-0.086
-0.193,-0.22399999999999998,-0.032,0.20800000000000002,-0.08,-0.129,0.087,0.057,0.136,0.19,0.20800000000000002,0.192,-0.013000000000000001,0.035,-0.086
-0.18600000000000003,-0.22699999999999998,-0.04,0.20600000000000002,-0.073,-0.134,0.08199999999999999,0.052000000000000005,0.131,0.188,0.20600000000000002,0.188,-0.013000000000000001,0.049,-0.08800000000000001
-0.172,-0.221,-0.05,0.196,-0.06,-0.136,0.079,0.049,0.126,0.18100000000000002,0.201,0.18100000000000002,-0.015,0.051,-0.09
-0.17600000000000002,-0.214,-0.038,0.195,-0.069,-0.127,0.08,0.049,0.128,0.182,0.20199999999999999,0.184,-0.013000000000000001,0.048,-0.08800000000000001
-0.177,-0.204,-0.027999999999999997,0.191,-0.07400000000000001,-0.11599999999999999,0.086,0.054000000000000006,0.135,0.192,0.21,0.195,-0.009000000000000001,0.052000000000000005,-0.091
-0.172,-0.195,-0.023,0.183,-0.07400000000000001,-0.109,0.09,0.055999999999999994,0.13699999999999998,0.19399999999999998,0.21600000000000003,0.198,-0.013000000000000001,0.053,-0.091
-0.17600000000000002,-0.198,-0.021,0.187,-0.077,-0.11,0.081,0.048,0.132,0.188,0.21100000000000002,0.192,-0.013000000000000001,0.061,-0.087
-0.18100000000000002,-0.19899999999999998,-0.018000000000000002,0.191,-0.08199999999999999,-0.10800000000000001,0.078,0.044000000000000004,0.129,0.18600000000000003,0.21,0.19,-0.013000000000000001,0.066,-0.08800000000000001
-0.193,-0.2,-0.006999999999999999,0.196,-0.092,-0.10400000000000001,0.079,0.044000000000000004,0.13,0.188,0.212,0.191,-0.013000000000000001,0.07,-0.08800000000000001
-0.20199999999999999,-0.20199999999999999,0.0,0.20199999999999999,-0.10099999999999999,-0.10099999999999999,0.078,0.042,0.127,0.18600000000000003,0.21100000000000002,0.18899999999999997,-0.013000000000000001,0.07200000000000001,-0.08800000000000001
-0.18600000000000003,-0.18899999999999997,-0.003,0.187,-0.091,-0.096,0.077,0.043,0.126,0.188,0.213,0.18899999999999997,-0.015,0.07400000000000001,-0.092
-0.195,-0.188,0.006,0.191,-0.1,-0.091,0.081,0.043,0.13,0.192,0.217,0.19399999999999998,-0.015,0.065,-0.092
-0.201,-0.20199999999999999,-0.001,0.20199999999999999,-0.1,-0.102,0.076,0.038,0.12300000000000001,0.185,0.21100000000000002,0.188,-0.015,0.062,-0.092
-0.175,-0.19699999999999998,-0.021,0.18600000000000003,-0.077,-0.109,0.07200000000000001,0.036000000000000004,0.11900000000000001,0.183,0.20800000000000002,0.184,-0.016,0.068,-0.095
-0.175,-0.18899999999999997,-0.013000000000000001,0.182,-0.081,-0.102,0.076,0.04,0.12300000000000001,0.188,0.212,0.19,-0.013000000000000001,0.067,-0.09699999999999999
-0.187,-0.19399999999999998,-0.006,0.19,-0.09,-0.10099999999999999,0.077,0.04,0.12300000000000001,0.188,0.212,0.18899999999999997,-0.013000000000000001,0.07200000000000001,-0.099
-0.183,-0.19399999999999998,-0.011000000000000001,0.18899999999999997,-0.086,-0.102,0.083,0.043,0.127,0.19,0.21600000000000003,0.192,-0.015,0.073,-0.1
-0.184,-0.19399999999999998,-0.01,0.18899999999999997,-0.087,-0.102,0.083,0.046,0.129,0.192,0.217,0.195,-0.015,0.076,-0.102
-0.174,-0.188,-0.013000000000000001,0.18,-0.08,-0.10099999999999999,0.085,0.046,0.132,0.196,0.218,0.19699999999999998,-0.015,0.08199999999999999,-0.10400000000000001
-0.163,-0.182,-0.019,0.172,-0.071,-0.102,0.086,0.046,0.132,0.19699999999999998,0.221,0.19699999999999998,-0.013000000000000001,0.083,-0.109
-0.175,-0.184,-0.009000000000000001,0.18,-0.083,-0.09699999999999999,0.08800000000000001,0.049,0.134,0.2,0.225,0.2,-0.017,0.079,-0.11
-0.18100000000000002,-0.179,0.002,0.18,-0.091,-0.08900000000000001,0.096,0.054000000000000006,0.139,0.20600000000000002,0.23199999999999998,0.205,-0.019,0.08800000000000001,-0.11
-0.174,-0.172,0.003,0.17300000000000001,-0.08800000000000001,-0.085,0.095,0.052000000000000005,0.138,0.207,0.233,0.20800000000000002,-0.017,0.092,-0.113
-0.174,-0.16899999999999998,0.005,0.172,-0.08900000000000001,-0.08199999999999999,0.09,0.045,0.138,0.20600000000000002,0.23,0.209,-0.015,0.10099999999999999,-0.115
-0.179,-0.16699999999999998,0.013000000000000001,0.172,-0.096,-0.077,0.091,0.046,0.142,0.21,0.233,0.21100000000000002,-0.018000000000000002,0.11699999999999999,-0.11699999999999999
-0.163,-0.14300000000000002,0.019,0.153,-0.09,-0.062,0.102,0.054000000000000006,0.151,0.221,0.245,0.22399999999999998,-0.018000000000000002,0.106,-0.11699999999999999
-0.184,-0.141,0.043,0.163,-0.113,-0.05,0.10800000000000001,0.057999999999999996,0.158,0.22699999999999998,0.253,0.23,-0.018000000000000002,0.102,-0.11900000000000001
-0.195,-0.158,0.037000000000000005,0.17600000000000002,-0.11599999999999999,-0.06,0.098,0.047,0.145,0.21600000000000003,0.242,0.21899999999999997,-0.018000000000000002,0.11800000000000001,-0.122
-0.184,-0.155,0.028999999999999998,0.17,-0.107,-0.063,0.094,0.04,0.139,0.21100000000000002,0.23600000000000002,0.212,-0.019,0.127,-0.126
-0.20199999999999999,-0.14800000000000002,0.053,0.175,-0.127,-0.048,0.094,0.043,0.15,0.221,0.244,0.221,-0.022000000000000002,0.133,-0.13
-0.182,-0.141,0.042,0.162,-0.11199999999999999,-0.05,0.098,0.04,0.147,0.218,0.244,0.222,-0.021,0.138,-0.134
-0.184,-0.14,0.044000000000000004,0.162,-0.114,-0.049,0.106,0.038,0.145,0.21899999999999997,0.24600000000000002,0.22,-0.024,0.136,-0.136
-0.19,-0.134,0.055999999999999994,0.162,-0.122,-0.039,0.11199999999999999,0.043,0.151,0.225,0.256,0.22899999999999998,-0.023,0.134,-0.13699999999999998
-0.182,-0.131,0.052000000000000005,0.156,-0.11699999999999999,-0.04,0.11599999999999999,0.048,0.155,0.226,0.259,0.22699999999999998,-0.024,0.139,-0.142
-0.188,-0.13699999999999998,0.051,0.163,-0.11900000000000001,-0.043,0.11,0.043,0.151,0.223,0.254,0.217,-0.028999999999999998,0.145,-0.14400000000000002
-0.184,-0.128,0.055999999999999994,0.156,-0.12,-0.036000000000000004,0.113,0.044000000000000004,0.152,0.226,0.258,0.221,-0.027999999999999997,0.14800000000000002,-0.147
-0.168,-0.11900000000000001,0.049,0.14300000000000002,-0.10800000000000001,-0.035,0.115,0.044000000000000004,0.152,0.22699999999999998,0.259,0.225,-0.025,0.147,-0.147
-0.155,-0.124,0.031,0.14,-0.09300000000000001,-0.047,0.10800000000000001,0.033,0.14300000000000002,0.217,0.248,0.22,-0.026000000000000002,0.151,-0.146
-0.155,-0.11699999999999999,0.038,0.13699999999999998,-0.09699999999999999,-0.04,0.115,0.04,0.14800000000000002,0.221,0.251,0.22399999999999998,-0.028999999999999998,0.152,-0.149
-0.161,-0.114,0.046,0.13699999999999998,-0.10300000000000001,-0.034,0.11800000000000001,0.043,0.153,0.226,0.255,0.22699999999999998,-0.028999999999999998,0.152,-0.151
-0.16899999999999998,-0.11800000000000001,0.05,0.14300000000000002,-0.109,-0.035,0.11599999999999999,0.039,0.15,0.22399999999999998,0.254,0.228,-0.028999999999999998,0.154,-0.152
-0.175,-0.11,0.066,0.142,-0.12,-0.022000000000000002,0.11900000000000001,0.045,0.159,0.233,0.261,0.23600000000000002,-0.027999999999999997,0.159,-0.154
-0.177,-0.098,0.08,0.13699999999999998,-0.128,-0.009000000000000001,0.12,0.049,0.166,0.23800000000000002,0.266,0.23800000000000002,-0.027000000000000003,0.166,-0.158
-0.174,-0.095,0.079,0.135,-0.127,-0.008,0.115,0.044000000000000004,0.16399999999999998,0.235,0.265,0.237,-0.026000000000000002,0.16699999999999998,-0.157
-0.18600000000000003,-0.1,0.086,0.14300000000000002,-0.136,-0.006999999999999999,0.113,0.045,0.166,0.239,0.26899999999999996,0.24100000000000002,-0.021,0.16899999999999998,-0.156
-0.191,-0.095,0.096,0.14300000000000002,-0.14300000000000002,0.001,0.10800000000000001,0.043,0.168,0.243,0.272,0.244,-0.02,0.17300000000000001,-0.153
-0.163,-0.087,0.075,0.125,-0.11900000000000001,-0.006,0.096,0.034,0.161,0.23800000000000002,0.267,0.237,-0.021,0.175,-0.151
-0.146,-0.086,0.061,0.11599999999999999,-0.10300000000000001,-0.013000000000000001,0.08,0.026000000000000002,0.154,0.23199999999999998,0.261,0.231,-0.02,0.171,-0.15
-0.153,-0.084,0.069,0.11800000000000001,-0.111,-0.008,0.069,0.024,0.153,0.23399999999999999,0.265,0.233,-0.018000000000000002,0.172,-0.146
-0.158,-0.081,0.077,0.11900000000000001,-0.11699999999999999,-0.002,0.066,0.026000000000000002,0.157,0.23600000000000002,0.267,0.23600000000000002,-0.018000000000000002,0.179,-0.14300000000000002
-0.149,-0.073,0.076,0.111,-0.113,0.002,0.059000000000000004,0.022000000000000002,0.154,0.233,0.265,0.237,-0.018000000000000002,0.17600000000000002,-0.142
-0.149,-0.073,0.075,0.11199999999999999,-0.11199999999999999,0.001,0.043,0.018000000000000002,0.15,0.233,0.268,0.237,-0.015,0.177,-0.14
-0.14800000000000002,-0.076,0.071,0.11199999999999999,-0.11,-0.003,0.032,0.013000000000000001,0.153,0.23600000000000002,0.271,0.242,-0.012,0.165,-0.136
-0.139,-0.085,0.054000000000000006,0.11199999999999999,-0.096,-0.016,0.022000000000000002,0.009000000000000001,0.14800000000000002,0.23199999999999998,0.265,0.23600000000000002,-0.008,0.154,-0.129
-0.14300000000000002,-0.09699999999999999,0.046,0.12,-0.095,-0.026000000000000002,0.017,0.006999999999999999,0.14,0.22399999999999998,0.256,0.22699999999999998,-0.009000000000000001,0.152,-0.12300000000000001
-0.127,-0.085,0.042,0.106,-0.085,-0.021,0.021,0.015,0.14800000000000002,0.23199999999999998,0.263,0.23,-0.006,0.15,-0.121
-0.136,-0.10800000000000001,0.027999999999999997,0.122,-0.08199999999999999,-0.040999999999999995,0.011000000000000001,0.006999999999999999,0.13699999999999998,0.22,0.253,0.223,-0.001,0.146,-0.114
-0.139,-0.129,0.011000000000000001,0.134,-0.07400000000000001,-0.059000000000000004,0.001,-0.004,0.125,0.20800000000000002,0.24100000000000002,0.215,0.002,0.138,-0.106
-0.11800000000000001,-0.10099999999999999,0.018000000000000002,0.11,-0.068,-0.042,0.005,0.009000000000000001,0.139,0.223,0.259,0.228,0.004,0.14,-0.10400000000000001
-0.114,-0.095,0.019,0.10400000000000001,-0.066,-0.038,0.001,0.006,0.141,0.226,0.262,0.231,0.006999999999999999,0.138,-0.102
-0.11800000000000001,-0.102,0.017,0.11,-0.067,-0.043,-0.006999999999999999,-0.001,0.14,0.226,0.261,0.231,0.011000000000000001,0.135,-0.098
-0.11199999999999999,-0.10099999999999999,0.011000000000000001,0.106,-0.061,-0.045,-0.013000000000000001,-0.002,0.13699999999999998,0.226,0.262,0.231,0.015,0.13699999999999998,-0.09300000000000001
-0.105,-0.1,0.006,0.102,-0.055,-0.047,-0.02,-0.006,0.136,0.225,0.259,0.22699999999999998,0.018000000000000002,0.141,-0.092
-0.11900000000000001,-0.09,0.028999999999999998,0.10400000000000001,-0.073,-0.031,-0.013000000000000001,0.002,0.141,0.231,0.267,0.23399999999999999,0.019,0.14800000000000002,-0.094
-0.092,-0.08199999999999999,0.011000000000000001,0.087,-0.051,-0.035,-0.013999999999999999,0.002,0.141,0.231,0.265,0.237,0.024,0.147,-0.092
-0.098,-0.08,0.018000000000000002,0.08800000000000001,-0.057999999999999996,-0.032,-0.011000000000000001,0.005,0.147,0.235,0.26899999999999996,0.242,0.025,0.14,-0.091
-0.10099999999999999,-0.073,0.027000000000000003,0.087,-0.064,-0.024,-0.006,0.006999999999999999,0.145,0.23399999999999999,0.271,0.24100000000000002,0.018000000000000002,0.136,-0.09
-0.08900000000000001,-0.077,0.013000000000000001,0.083,-0.051,-0.033,-0.013000000000000001,-0.004,0.132,0.221,0.261,0.233,0.017,0.142,-0.086
-0.115,-0.092,0.022000000000000002,0.10300000000000001,-0.069,-0.035,-0.013999999999999999,-0.011000000000000001,0.121,0.215,0.258,0.23,0.013999999999999999,0.146,-0.085
-0.106,-0.086,0.02,0.09699999999999999,-0.063,-0.033,-0.015,-0.015,0.11800000000000001,0.214,0.261,0.22699999999999998,0.009000000000000001,0.15,-0.084
-0.10099999999999999,-0.079,0.022000000000000002,0.08900000000000001,-0.061,-0.027999999999999997,-0.015,-0.018000000000000002,0.11699999999999999,0.214,0.264,0.228,0.009000000000000001,0.151,-0.08
-0.13,-0.1,0.03,0.115,-0.08,-0.035,-0.025,-0.03,0.10400000000000001,0.20199999999999999,0.252,0.225,0.012,0.147,-0.075
-0.133,-0.102,0.032,0.11699999999999999,-0.08199999999999999,-0.035,-0.024,-0.031,0.10400000000000001,0.203,0.252,0.22899999999999998,0.011000000000000001,0.153,-0.073
-0.126,-0.091,0.034,0.10800000000000001,-0.079,-0.028999999999999998,-0.019,-0.026000000000000002,0.11,0.21100000000000002,0.262,0.23399999999999999,0.01,0.158,-0.07200000000000001
-0.128,-0.094,0.035,0.111,-0.081,-0.03,-0.026000000000000002,-0.032,0.105,0.20800000000000002,0.262,0.233,0.011000000000000001,0.153,-0.069
-0.126,-0.10300000000000001,0.023,0.114,-0.07400000000000001,-0.04,-0.028999999999999998,-0.038,0.098,0.20199999999999999,0.254,0.22699999999999998,0.011000000000000001,0.154,-0.07
-0.128,-0.114,0.015,0.121,-0.071,-0.05,-0.034,-0.04,0.098,0.19899999999999998,0.249,0.221,0.011000000000000001,0.154,-0.073
-0.13,-0.111,0.018000000000000002,0.12,-0.07400000000000001,-0.046,-0.026000000000000002,-0.04,0.098,0.201,0.251,0.226,0.012,0.157,-0.07200000000000001
-0.138,-0.114,0.023,0.126,-0.08,-0.045,-0.021,-0.043,0.08900000000000001,0.196,0.24600000000000002,0.22699999999999998,0.012,0.168,-0.073
-0.131,-0.10300000000000001,0.027999999999999997,0.11699999999999999,-0.079,-0.038,-0.019,-0.040999999999999995,0.09300000000000001,0.2,0.253,0.228,0.006999999999999999,0.16899999999999998,-0.077
-0.129,-0.096,0.033,0.11199999999999999,-0.08,-0.032,-0.016,-0.037000000000000005,0.1,0.205,0.258,0.231,0.003,0.16699999999999998,-0.08
-0.126,-0.08900000000000001,0.036000000000000004,0.107,-0.081,-0.026000000000000002,-0.018000000000000002,-0.036000000000000004,0.102,0.207,0.26,0.23399999999999999,0.004,0.165,-0.08199999999999999
-0.13699999999999998,-0.085,0.052000000000000005,0.111,-0.094,-0.017,-0.013999999999999999,-0.035,0.102,0.209,0.265,0.23800000000000002,0.006,0.16699999999999998,-0.08199999999999999
-0.163,-0.095,0.069,0.129,-0.11599999999999999,-0.013000000000000001,-0.011000000000000001,-0.033,0.102,0.21100000000000002,0.265,0.24,0.009000000000000001,0.172,-0.08
-0.157,-0.094,0.063,0.126,-0.11,-0.015,-0.011000000000000001,-0.034,0.10300000000000001,0.21100000000000002,0.265,0.24100000000000002,0.012,0.17300000000000001,-0.076
-0.142,-0.09699999999999999,0.046,0.11900000000000001,-0.094,-0.025,-0.018000000000000002,-0.036000000000000004,0.099,0.20600000000000002,0.26,0.23600000000000002,0.015,0.16699999999999998,-0.07
-0.115,-0.098,0.018000000000000002,0.106,-0.067,-0.04,-0.026000000000000002,-0.040999999999999995,0.09300000000000001,0.201,0.252,0.228,0.017,0.161,-0.07200000000000001
-0.10099999999999999,-0.095,0.006,0.098,-0.052000000000000005,-0.044000000000000004,-0.025,-0.038,0.09300000000000001,0.2,0.252,0.22699999999999998,0.017,0.157,-0.076
-0.111,-0.098,0.013000000000000001,0.10400000000000001,-0.062,-0.042,-0.022000000000000002,-0.032,0.09699999999999999,0.20199999999999999,0.251,0.226,0.017,0.14800000000000002,-0.077
-0.11599999999999999,-0.11,0.006,0.113,-0.061,-0.052000000000000005,-0.021,-0.035,0.091,0.195,0.244,0.21899999999999997,0.017,0.142,-0.076
-0.107,-0.107,0.0,0.107,-0.053,-0.054000000000000006,-0.022000000000000002,-0.036000000000000004,0.09,0.195,0.24600000000000002,0.222,0.018000000000000002,0.14400000000000002,-0.07400000000000001
-0.111,-0.106,0.004,0.10800000000000001,-0.057,-0.051,-0.025,-0.039,0.08800000000000001,0.191,0.244,0.223,0.019,0.145,-0.07
-0.111,-0.107,0.004,0.109,-0.057,-0.052000000000000005,-0.017,-0.035,0.091,0.192,0.245,0.22399999999999998,0.018000000000000002,0.14,-0.07
-0.107,-0.10400000000000001,0.004,0.106,-0.055,-0.051,-0.01,-0.028999999999999998,0.094,0.198,0.251,0.228,0.013000000000000001,0.142,-0.07
-0.11800000000000001,-0.115,0.003,0.11699999999999999,-0.06,-0.057,-0.015,-0.035,0.08800000000000001,0.193,0.245,0.223,0.012,0.151,-0.075
-0.11800000000000001,-0.11699999999999999,0.001,0.11800000000000001,-0.059000000000000004,-0.059000000000000004,-0.01,-0.033,0.08800000000000001,0.193,0.244,0.223,0.015,0.147,-0.077
-0.11800000000000001,-0.11599999999999999,0.003,0.11699999999999999,-0.061,-0.057,-0.002,-0.03,0.09300000000000001,0.196,0.248,0.225,0.013000000000000001,0.149,-0.077
-0.129,-0.124,0.004,0.127,-0.067,-0.06,-0.002,-0.027999999999999997,0.095,0.198,0.247,0.223,0.013000000000000001,0.146,-0.08
-0.14,-0.132,0.008,0.136,-0.07400000000000001,-0.062,0.003,-0.024,0.092,0.198,0.245,0.222,0.011000000000000001,0.141,-0.08
-0.145,-0.136,0.009000000000000001,0.141,-0.076,-0.064,0.011000000000000001,-0.021,0.098,0.19899999999999998,0.245,0.221,0.008,0.142,-0.08
-0.147,-0.142,0.005,0.14400000000000002,-0.075,-0.069,0.02,-0.015,0.10099999999999999,0.2,0.243,0.221,0.008,0.13,-0.079
-0.133,-0.132,0.002,0.133,-0.068,-0.065,0.028999999999999998,-0.006,0.10400000000000001,0.203,0.243,0.225,0.011000000000000001,0.135,-0.08
-0.13699999999999998,-0.134,0.004,0.136,-0.07,-0.066,0.022000000000000002,-0.009000000000000001,0.10099999999999999,0.19899999999999998,0.24,0.221,0.009000000000000001,0.138,-0.078
-0.155,-0.149,0.005,0.152,-0.08,-0.07200000000000001,0.013000000000000001,-0.018000000000000002,0.092,0.19399999999999998,0.23399999999999999,0.213,0.006999999999999999,0.126,-0.07400000000000001
-0.163,-0.156,0.006,0.16,-0.085,-0.075,0.018000000000000002,-0.02,0.08800000000000001,0.19,0.231,0.21100000000000002,0.003,0.11900000000000001,-0.073
-0.17,-0.163,0.006999999999999999,0.166,-0.08800000000000001,-0.078,0.024,-0.019,0.084,0.184,0.231,0.20800000000000002,0.001,0.11199999999999999,-0.071
-0.175,-0.166,0.009000000000000001,0.171,-0.092,-0.079,0.025,-0.021,0.079,0.18100000000000002,0.228,0.204,0.001,0.111,-0.071
-0.17800000000000002,-0.16699999999999998,0.011000000000000001,0.172,-0.095,-0.077,0.024,-0.021,0.077,0.17800000000000002,0.225,0.201,-0.004,0.11,-0.07
-0.179,-0.172,0.006999999999999999,0.175,-0.09300000000000001,-0.083,0.035,-0.013000000000000001,0.08199999999999999,0.18,0.225,0.19899999999999998,-0.005,0.10099999999999999,-0.076
-0.183,-0.179,0.004,0.18100000000000002,-0.09300000000000001,-0.08800000000000001,0.042,-0.009000000000000001,0.083,0.18,0.22399999999999998,0.196,-0.004,0.09699999999999999,-0.08199999999999999
-0.18,-0.179,0.001,0.18,-0.09,-0.08900000000000001,0.037000000000000005,-0.009000000000000001,0.08199999999999999,0.179,0.221,0.19399999999999998,-0.004,0.086,-0.081
-0.182,-0.18100000000000002,0.001,0.18100000000000002,-0.09,-0.091,0.038,-0.009000000000000001,0.08199999999999999,0.17800000000000002,0.221,0.19399999999999998,-0.004,0.085,-0.081
-0.182,-0.19,-0.006999999999999999,0.18600000000000003,-0.087,-0.099,0.038,-0.011000000000000001,0.079,0.174,0.215,0.192,-0.005,0.087,-0.079
-0.185,-0.19899999999999998,-0.015,0.192,-0.085,-0.107,0.036000000000000004,-0.013999999999999999,0.073,0.17,0.209,0.188,-0.006999999999999999,0.07400000000000001,-0.075
-0.182,-0.19699999999999998,-0.015,0.19,-0.084,-0.106,0.035,-0.015,0.07,0.166,0.20600000000000002,0.184,-0.006999999999999999,0.079,-0.073
-0.18,-0.201,-0.021,0.191,-0.08,-0.111,0.037000000000000005,-0.013999999999999999,0.07,0.16399999999999998,0.203,0.184,-0.008,0.071,-0.076
-0.18100000000000002,-0.209,-0.027999999999999997,0.196,-0.076,-0.11900000000000001,0.04,-0.013000000000000001,0.068,0.16399999999999998,0.20199999999999999,0.183,-0.011000000000000001,0.066,-0.08
-0.177,-0.213,-0.035,0.195,-0.07,-0.124,0.040999999999999995,-0.013999999999999999,0.064,0.159,0.19899999999999998,0.179,-0.012,0.068,-0.08
-0.182,-0.217,-0.036000000000000004,0.2,-0.07200000000000001,-0.127,0.044000000000000004,-0.011000000000000001,0.064,0.159,0.195,0.174,-0.013999999999999999,0.066,-0.08
-0.188,-0.222,-0.033,0.204,-0.077,-0.128,0.049,-0.006,0.066,0.162,0.19399999999999998,0.172,-0.018000000000000002,0.059000000000000004,-0.08199999999999999
-0.185,-0.23199999999999998,-0.046,0.20800000000000002,-0.07,-0.139,0.046,-0.011000000000000001,0.06,0.153,0.191,0.16699999999999998,-0.018000000000000002,0.042,-0.081
-0.19,-0.23600000000000002,-0.045,0.213,-0.07200000000000001,-0.141,0.048,-0.006999999999999999,0.062,0.155,0.192,0.16699999999999998,-0.019,0.035,-0.084
-0.214,-0.233,-0.018000000000000002,0.22399999999999998,-0.098,-0.126,0.057999999999999996,0.001,0.068,0.163,0.19899999999999998,0.172,-0.021,0.035,-0.085
-0.21,-0.23,-0.019,0.22,-0.095,-0.125,0.057,-0.002,0.065,0.158,0.201,0.17300000000000001,-0.018000000000000002,0.049,-0.08199999999999999
-0.18899999999999997,-0.223,-0.034,0.205,-0.077,-0.128,0.049,-0.001,0.066,0.159,0.2,0.17300000000000001,-0.018000000000000002,0.055999999999999994,-0.08
-0.19399999999999998,-0.221,-0.027000000000000003,0.207,-0.083,-0.124,0.053,-0.002,0.066,0.161,0.20199999999999999,0.17,-0.019,0.053,-0.079
-0.209,-0.23399999999999999,-0.025,0.222,-0.092,-0.13,0.052000000000000005,-0.009000000000000001,0.059000000000000004,0.153,0.19399999999999998,0.166,-0.021,0.053,-0.079
-0.21100000000000002,-0.23600000000000002,-0.025,0.22399999999999998,-0.092,-0.132,0.043,-0.013000000000000001,0.055999999999999994,0.149,0.18899999999999997,0.163,-0.021,0.051,-0.08
-0.218,-0.23199999999999998,-0.013999999999999999,0.225,-0.102,-0.12300000000000001,0.049,-0.009000000000000001,0.059000000000000004,0.152,0.191,0.166,-0.021,0.046,-0.08
-0.21,-0.23,-0.019,0.22,-0.096,-0.124,0.048,-0.011000000000000001,0.053,0.146,0.185,0.163,-0.021,0.043,-0.08
-0.215,-0.226,-0.011000000000000001,0.221,-0.102,-0.11800000000000001,0.05,-0.005,0.057,0.15,0.18600000000000003,0.162,-0.023,0.042,-0.081
-0.24100000000000002,-0.231,0.011000000000000001,0.235,-0.126,-0.111,0.057,-0.003,0.067,0.158,0.19399999999999998,0.168,-0.025,0.040999999999999995,-0.083
-0.226,-0.23,-0.004,0.228,-0.111,-0.11699999999999999,0.051,-0.009000000000000001,0.062,0.154,0.19399999999999998,0.165,-0.022000000000000002,0.048,-0.083
-0.226,-0.233,-0.008,0.23,-0.10800000000000001,-0.121,0.051,-0.006999999999999999,0.061,0.154,0.195,0.168,-0.021,0.045,-0.08
-0.218,-0.228,-0.009000000000000001,0.223,-0.10400000000000001,-0.11800000000000001,0.052000000000000005,-0.006999999999999999,0.06,0.154,0.196,0.17,-0.02,0.045,-0.079
-0.20600000000000002,-0.22,-0.013000000000000001,0.213,-0.09699999999999999,-0.11699999999999999,0.053,-0.005,0.062,0.156,0.198,0.171,-0.021,0.051,-0.081
-0.193,-0.21899999999999997,-0.026000000000000002,0.20600000000000002,-0.083,-0.12300000000000001,0.052000000000000005,-0.008,0.061,0.153,0.195,0.168,-0.022000000000000002,0.05,-0.081
-0.18899999999999997,-0.222,-0.033,0.205,-0.078,-0.127,0.048,-0.009000000000000001,0.059000000000000004,0.149,0.191,0.16699999999999998,-0.018000000000000002,0.042,-0.079
-0.209,-0.23800000000000002,-0.028999999999999998,0.22399999999999998,-0.09,-0.134,0.045,-0.011000000000000001,0.059000000000000004,0.14800000000000002,0.19,0.16399999999999998,-0.02,0.04,-0.077
-0.196,-0.237,-0.042,0.21600000000000003,-0.077,-0.139,0.043,-0.017,0.051,0.142,0.183,0.154,-0.024,0.044000000000000004,-0.078
-0.19399999999999998,-0.22699999999999998,-0.033,0.21,-0.08,-0.13,0.049,-0.009000000000000001,0.059000000000000004,0.149,0.192,0.157,-0.025,0.043,-0.077
-0.188,-0.21600000000000003,-0.028999999999999998,0.20199999999999999,-0.079,-0.122,0.055,-0.005,0.066,0.158,0.19699999999999998,0.16899999999999998,-0.022000000000000002,0.048,-0.078
-0.172,-0.215,-0.043,0.19399999999999998,-0.065,-0.129,0.045,-0.015,0.053,0.145,0.184,0.166,-0.019,0.042,-0.076
-0.188,-0.226,-0.037000000000000005,0.20600000000000002,-0.07400000000000001,-0.132,0.042,-0.018000000000000002,0.051,0.14300000000000002,0.184,0.159,-0.022000000000000002,0.039,-0.078
-0.203,-0.231,-0.027999999999999997,0.217,-0.087,-0.13,0.047,-0.015,0.054000000000000006,0.147,0.184,0.162,-0.021,0.046,-0.079
-0.214,-0.235,-0.021,0.225,-0.096,-0.129,0.043,-0.018000000000000002,0.051,0.14300000000000002,0.183,0.161,-0.018000000000000002,0.051,-0.077
-0.22,-0.23800000000000002,-0.018000000000000002,0.22899999999999998,-0.10099999999999999,-0.129,0.038,-0.019,0.051,0.14300000000000002,0.182,0.159,-0.022000000000000002,0.048,-0.081
-0.22399999999999998,-0.23800000000000002,-0.015,0.231,-0.10400000000000001,-0.127,0.04,-0.018000000000000002,0.051,0.14300000000000002,0.18100000000000002,0.157,-0.024,0.051,-0.08199999999999999
-0.22,-0.23199999999999998,-0.011000000000000001,0.226,-0.10400000000000001,-0.121,0.037000000000000005,-0.018000000000000002,0.051,0.14300000000000002,0.182,0.158,-0.022000000000000002,0.055999999999999994,-0.08
-0.20600000000000002,-0.223,-0.016,0.214,-0.095,-0.11900000000000001,0.037000000000000005,-0.018000000000000002,0.054000000000000006,0.145,0.185,0.162,-0.021,0.055,-0.08
-0.198,-0.212,-0.015,0.205,-0.091,-0.114,0.044000000000000004,-0.011000000000000001,0.057999999999999996,0.14800000000000002,0.18899999999999997,0.166,-0.021,0.059000000000000004,-0.08199999999999999
-0.204,-0.218,-0.013000000000000001,0.21100000000000002,-0.095,-0.11599999999999999,0.042,-0.016,0.053,0.14400000000000002,0.18600000000000003,0.165,-0.021,0.05,-0.08
-0.214,-0.228,-0.013999999999999999,0.221,-0.1,-0.121,0.038,-0.018000000000000002,0.052000000000000005,0.14300000000000002,0.185,0.16399999999999998,-0.021,0.047,-0.08
-0.217,-0.23199999999999998,-0.015,0.225,-0.102,-0.12300000000000001,0.042,-0.018000000000000002,0.05,0.142,0.184,0.16399999999999998,-0.02,0.051,-0.078
-0.212,-0.23,-0.018000000000000002,0.221,-0.09699999999999999,-0.124,0.043,-0.024,0.047,0.141,0.183,0.161,-0.021,0.049,-0.077
-0.19699999999999998,-0.221,-0.025,0.209,-0.086,-0.12300000000000001,0.044000000000000004,-0.021,0.053,0.147,0.187,0.162,-0.021,0.043,-0.081
-0.203,-0.23199999999999998,-0.028999999999999998,0.217,-0.087,-0.131,0.04,-0.025,0.049,0.14,0.18100000000000002,0.162,-0.021,0.043,-0.081
-0.21899999999999997,-0.24600000000000002,-0.027999999999999997,0.233,-0.096,-0.138,0.037000000000000005,-0.027000000000000003,0.046,0.136,0.177,0.156,-0.022000000000000002,0.042,-0.08
-0.209,-0.24,-0.03,0.225,-0.08900000000000001,-0.136,0.043,-0.022000000000000002,0.051,0.141,0.18100000000000002,0.158,-0.022000000000000002,0.043,-0.08
-0.2,-0.23399999999999999,-0.035,0.217,-0.08199999999999999,-0.135,0.040999999999999995,-0.024,0.05,0.141,0.183,0.16,-0.02,0.044000000000000004,-0.077
-0.2,-0.233,-0.034,0.21600000000000003,-0.083,-0.134,0.044000000000000004,-0.021,0.052000000000000005,0.145,0.185,0.161,-0.02,0.042,-0.078
-0.19699999999999998,-0.231,-0.034,0.214,-0.08199999999999999,-0.133,0.046,-0.017,0.055,0.147,0.187,0.165,-0.018000000000000002,0.044000000000000004,-0.08
-0.20199999999999999,-0.231,-0.028999999999999998,0.21600000000000003,-0.086,-0.13,0.043,-0.018000000000000002,0.053,0.145,0.18600000000000003,0.165,-0.019,0.045,-0.079
-0.2,-0.223,-0.022000000000000002,0.21100000000000002,-0.08800000000000001,-0.12300000000000001,0.044000000000000004,-0.017,0.054000000000000006,0.147,0.18600000000000003,0.165,-0.019,0.044000000000000004,-0.079
-0.2,-0.223,-0.023,0.212,-0.08800000000000001,-0.12300000000000001,0.046,-0.015,0.055999999999999994,0.14800000000000002,0.188,0.165,-0.018000000000000002,0.040999999999999995,-0.078
-0.209,-0.22899999999999998,-0.02,0.21899999999999997,-0.094,-0.125,0.044000000000000004,-0.018000000000000002,0.053,0.14400000000000002,0.184,0.162,-0.021,0.043,-0.076
-0.207,-0.221,-0.013000000000000001,0.214,-0.09699999999999999,-0.11699999999999999,0.044000000000000004,-0.018000000000000002,0.054000000000000006,0.145,0.184,0.165,-0.021,0.053,-0.07400000000000001
-0.20800000000000002,-0.21600000000000003,-0.008,0.212,-0.1,-0.113,0.048,-0.017,0.054000000000000006,0.145,0.18600000000000003,0.165,-0.022000000000000002,0.057999999999999996,-0.073
-0.218,-0.222,-0.004,0.22,-0.106,-0.114,0.051,-0.017,0.053,0.14400000000000002,0.183,0.16,-0.025,0.052000000000000005,-0.081
-0.217,-0.21600000000000003,0.001,0.21600000000000003,-0.109,-0.107,0.057,-0.015,0.057,0.14800000000000002,0.184,0.16,-0.024,0.059000000000000004,-0.086
-0.217,-0.209,0.006999999999999999,0.213,-0.11199999999999999,-0.10099999999999999,0.062,-0.012,0.062,0.152,0.187,0.162,-0.027999999999999997,0.068,-0.09300000000000001
-0.22899999999999998,-0.21600000000000003,0.012,0.223,-0.12,-0.102,0.071,-0.009000000000000001,0.062,0.15,0.184,0.157,-0.036000000000000004,0.06,-0.1
-0.233,-0.22399999999999998,0.009000000000000001,0.22899999999999998,-0.12,-0.10800000000000001,0.086,-0.002,0.064,0.149,0.182,0.153,-0.042,0.048,-0.10400000000000001
-0.245,-0.237,0.006999999999999999,0.24100000000000002,-0.126,-0.115,0.1,0.004,0.065,0.145,0.177,0.14400000000000002,-0.051,0.04,-0.105
-0.26,-0.248,0.011000000000000001,0.254,-0.136,-0.11800000000000001,0.11699999999999999,0.011000000000000001,0.059000000000000004,0.136,0.17,0.135,-0.06,0.040999999999999995,-0.10300000000000001
-0.265,-0.257,0.008,0.261,-0.136,-0.124,0.135,0.024,0.059000000000000004,0.129,0.161,0.128,-0.068,0.036000000000000004,-0.105
-0.27399999999999997,-0.275,-0.001,0.275,-0.13699999999999998,-0.138,0.151,0.037000000000000005,0.052000000000000005,0.111,0.142,0.11199999999999999,-0.08199999999999999,0.026000000000000002,-0.105
-0.282,-0.297,-0.015,0.289,-0.134,-0.156,0.179,0.057999999999999996,0.045,0.095,0.127,0.098,-0.09300000000000001,0.009000000000000001,-0.10099999999999999
-0.292,-0.321,-0.028999999999999998,0.306,-0.132,-0.175,0.205,0.081,0.044000000000000004,0.083,0.113,0.083,-0.10400000000000001,-0.018000000000000002,-0.095
-0.303,-0.34,-0.037000000000000005,0.322,-0.133,-0.18899999999999997,0.22699999999999998,0.10099999999999999,0.038,0.065,0.09300000000000001,0.062,-0.11900000000000001,-0.040999999999999995,-0.092
-0.318,-0.359,-0.040999999999999995,0.33899999999999997,-0.139,-0.201,0.25,0.11800000000000001,0.033,0.051,0.079,0.049,-0.132,-0.055999999999999994,-0.086
-0.32299999999999995,-0.376,-0.052000000000000005,0.349,-0.135,-0.214,0.27899999999999997,0.14800000000000002,0.04,0.045,0.065,0.04,-0.138,-0.07,-0.087
-0.332,-0.391,-0.059000000000000004,0.361,-0.13699999999999998,-0.225,0.307,0.188,0.061,0.046,0.057,0.027000000000000003,-0.14400000000000002,-0.083,-0.094
-0.344,-0.402,-0.057999999999999996,0.373,-0.142,-0.231,0.336,0.223,0.085,0.052000000000000005,0.051,0.017,-0.15,-0.09699999999999999,-0.102
-0.358,-0.41700000000000004,-0.059000000000000004,0.38799999999999996,-0.149,-0.23800000000000002,0.36200000000000004,0.261,0.11199999999999999,0.064,0.045,0.008,-0.154,-0.115,-0.115
-0.368,-0.42700000000000005,-0.059000000000000004,0.39799999999999996,-0.154,-0.243,0.386,0.301,0.157,0.08800000000000001,0.048,0.004,-0.155,-0.124,-0.12300000000000001
-0.363,-0.43200000000000005,-0.069,0.39799999999999996,-0.146,-0.251,0.409,0.348,0.205,0.11199999999999999,0.05,-0.002,-0.152,-0.129,-0.133
-0.36200000000000004,-0.446,-0.085,0.40399999999999997,-0.139,-0.266,0.441,0.405,0.254,0.129,0.044000000000000004,-0.011000000000000001,-0.154,-0.138,-0.14300000000000002
-0.35200000000000004,-0.461,-0.10800000000000001,0.406,-0.121,-0.285,0.474,0.46799999999999997,0.309,0.146,0.035,-0.021,-0.154,-0.155,-0.152
-0.337,-0.469,-0.133,0.40299999999999997,-0.102,-0.301,0.488,0.521,0.366,0.17600000000000002,0.036000000000000004,-0.022000000000000002,-0.142,-0.177,-0.159
-0.31,-0.465,-0.154,0.38799999999999996,-0.078,-0.31,0.491,0.561,0.42200000000000004,0.21100000000000002,0.045,-0.019,-0.129,-0.185,-0.166
-0.29600000000000004,-0.47700000000000004,-0.18100000000000002,0.387,-0.057,-0.33,0.505,0.613,0.47200000000000003,0.23199999999999998,0.044000000000000004,-0.025,-0.12300000000000001,-0.19899999999999998,-0.168
-0.273,-0.489,-0.21600000000000003,0.381,-0.027999999999999997,-0.353,0.513,0.665,0.53,0.259,0.048,-0.03,-0.115,-0.214,-0.16899999999999998
-0.24,-0.486,-0.245,0.363,0.003,-0.366,0.511,0.7120000000000001,0.6,0.302,0.064,-0.024,-0.09699999999999999,-0.217,-0.177
-0.21100000000000002,-0.48700000000000004,-0.276,0.349,0.033,-0.382,0.514,0.778,0.687,0.354,0.083,-0.017,-0.07400000000000001,-0.222,-0.18600000000000003
-0.168,-0.483,-0.316,0.326,0.07400000000000001,-0.4,0.507,0.8320000000000001,0.758,0.39899999999999997,0.1,-0.008,-0.049,-0.23399999999999999,-0.191
-0.132,-0.486,-0.355,0.309,0.11199999999999999,-0.42100000000000004,0.507,0.8959999999999999,0.855,0.45899999999999996,0.11900000000000001,-0.001,-0.022000000000000002,-0.251,-0.19899999999999998
-0.08800000000000001,-0.49,-0.402,0.289,0.157,-0.446,0.521,0.976,0.977,0.528,0.134,0.0,0.002,-0.265,-0.213
-0.049,-0.484,-0.435,0.267,0.193,-0.46,0.522,1.033,1.082,0.595,0.155,0.009000000000000001,0.026000000000000002,-0.264,-0.226
-0.018000000000000002,-0.478,-0.461,0.248,0.222,-0.469,0.519,1.099,1.194,0.6659999999999999,0.18,0.022000000000000002,0.055,-0.266,-0.23399999999999999
0.023,-0.47200000000000003,-0.495,0.225,0.259,-0.484,0.506,1.153,1.288,0.7290000000000001,0.203,0.038,0.08199999999999999,-0.27699999999999997,-0.237
0.07200000000000001,-0.456,-0.527,0.192,0.3,-0.49200000000000005,0.485,1.197,1.389,0.8,0.233,0.059000000000000004,0.11599999999999999,-0.267,-0.239
0.107,-0.44,-0.547,0.166,0.32799999999999996,-0.494,0.465,1.242,1.486,0.87,0.263,0.079,0.151,-0.27,-0.244
0.153,-0.426,-0.58,0.13699999999999998,0.36700000000000005,-0.503,0.43200000000000005,1.258,1.5619999999999998,0.935,0.29,0.1,0.188,-0.27899999999999997,-0.24600000000000002
0.215,-0.406,-0.622,0.096,0.418,-0.514,0.397,1.2690000000000001,1.6569999999999998,1.012,0.32,0.11900000000000001,0.225,-0.267,-0.251
0.242,-0.392,-0.634,0.075,0.43799999999999994,-0.513,0.375,1.286,1.7380000000000002,1.069,0.344,0.136,0.249,-0.255,-0.254
0.271,-0.389,-0.659,0.059000000000000004,0.466,-0.524,0.35,1.274,1.764,1.077,0.33899999999999997,0.142,0.264,-0.24600000000000002,-0.237
0.302,-0.379,-0.6809999999999999,0.038,0.491,-0.53,0.318,1.26,1.7919999999999998,1.087,0.337,0.14800000000000002,0.275,-0.247,-0.226
0.315,-0.363,-0.6779999999999999,0.024,0.49700000000000005,-0.521,0.282,1.228,1.8119999999999998,1.1,0.344,0.159,0.285,-0.231,-0.22
0.325,-0.34299999999999997,-0.6679999999999999,0.009000000000000001,0.496,-0.505,0.23600000000000002,1.159,1.8,1.1079999999999999,0.35,0.17600000000000002,0.297,-0.204,-0.212
0.316,-0.32,-0.635,0.002,0.47600000000000003,-0.478,0.2,1.089,1.784,1.117,0.365,0.201,0.307,-0.191,-0.203
0.319,-0.299,-0.618,-0.01,0.469,-0.45899999999999996,0.146,0.971,1.719,1.089,0.36700000000000005,0.21600000000000003,0.312,-0.17,-0.18100000000000002
0.33799999999999997,-0.27699999999999997,-0.614,-0.03,0.47600000000000003,-0.446,0.083,0.833,1.619,1.042,0.36200000000000004,0.228,0.313,-0.153,-0.158
0.344,-0.266,-0.61,-0.04,0.47700000000000004,-0.43799999999999994,0.035,0.73,1.52,0.9890000000000001,0.35,0.235,0.311,-0.14800000000000002,-0.126
0.344,-0.26899999999999996,-0.613,-0.038,0.479,-0.441,-0.013999999999999999,0.62,1.409,0.9179999999999999,0.324,0.225,0.302,-0.14300000000000002,-0.08900000000000001
0.345,-0.275,-0.62,-0.035,0.48200000000000004,-0.447,-0.043,0.51,1.2830000000000001,0.83,0.28800000000000003,0.209,0.27899999999999997,-0.128,-0.057
0.325,-0.28,-0.605,-0.022000000000000002,0.465,-0.44299999999999995,-0.075,0.355,1.072,0.7020000000000001,0.25,0.196,0.248,-0.114,-0.013000000000000001
0.281,-0.284,-0.5660000000000001,0.002,0.423,-0.425,-0.11699999999999999,0.145,0.782,0.5489999999999999,0.213,0.191,0.213,-0.10800000000000001,0.042
0.228,-0.294,-0.522,0.033,0.376,-0.408,-0.13699999999999998,-0.037000000000000005,0.473,0.365,0.161,0.188,0.172,-0.106,0.099
0.18,-0.316,-0.496,0.068,0.33899999999999997,-0.406,-0.141,-0.152,0.20800000000000002,0.17,0.098,0.165,0.129,-0.106,0.155
0.145,-0.355,-0.501,0.105,0.324,-0.428,-0.132,-0.222,-0.017,-0.013000000000000001,0.028999999999999998,0.132,0.081,-0.129,0.222
0.11699999999999999,-0.396,-0.513,0.14,0.315,-0.455,-0.12,-0.282,-0.213,-0.179,-0.04,0.10099999999999999,0.036000000000000004,-0.158,0.28
0.122,-0.433,-0.555,0.155,0.33899999999999997,-0.494,-0.11900000000000001,-0.332,-0.355,-0.306,-0.102,0.06,0.001,-0.177,0.318
0.128,-0.467,-0.594,0.17,0.361,-0.53,-0.11699999999999999,-0.361,-0.46299999999999997,-0.40299999999999997,-0.153,0.03,-0.024,-0.19399999999999998,0.35100000000000003
0.11800000000000001,-0.474,-0.5920000000000001,0.17800000000000002,0.355,-0.5329999999999999,-0.11699999999999999,-0.37799999999999995,-0.509,-0.44299999999999995,-0.16699999999999998,0.03,-0.031,-0.196,0.369
0.111,-0.48700000000000004,-0.598,0.18899999999999997,0.354,-0.5429999999999999,-0.11699999999999999,-0.377,-0.513,-0.45,-0.179,0.024,-0.038,-0.204,0.38299999999999995
0.111,-0.508,-0.619,0.19899999999999998,0.364,-0.564,-0.113,-0.376,-0.517,-0.461,-0.201,0.006,-0.048,-0.214,0.389
0.092,-0.536,-0.628,0.222,0.36,-0.583,-0.094,-0.38,-0.5429999999999999,-0.488,-0.23,-0.015,-0.067,-0.233,0.40299999999999997
0.053,-0.569,-0.622,0.258,0.33799999999999997,-0.595,-0.052000000000000005,-0.371,-0.568,-0.514,-0.258,-0.034,-0.09,-0.251,0.41200000000000003
0.081,-0.589,-0.669,0.254,0.375,-0.629,-0.027000000000000003,-0.37,-0.6,-0.545,-0.29,-0.064,-0.11,-0.268,0.423
0.084,-0.629,-0.7120000000000001,0.273,0.39799999999999996,-0.6709999999999999,0.0,-0.35100000000000003,-0.632,-0.583,-0.331,-0.102,-0.133,-0.307,0.445
0.047,-0.667,-0.7140000000000001,0.31,0.381,-0.691,0.026000000000000002,-0.33399999999999996,-0.654,-0.607,-0.354,-0.12300000000000001,-0.15,-0.32899999999999996,0.455
0.051,-0.674,-0.726,0.311,0.389,-0.7,0.044000000000000004,-0.327,-0.6809999999999999,-0.627,-0.368,-0.13699999999999998,-0.16399999999999998,-0.331,0.45799999999999996
0.043,-0.669,-0.713,0.313,0.37799999999999995,-0.691,0.067,-0.309,-0.6920000000000001,-0.636,-0.373,-0.14,-0.175,-0.324,0.457
0.006,-0.684,-0.69,0.34,0.348,-0.688,0.10300000000000001,-0.28800000000000003,-0.7020000000000001,-0.647,-0.385,-0.153,-0.19699999999999998,-0.331,0.45799999999999996
0.002,-0.677,-0.679,0.33799999999999997,0.341,-0.679,0.145,-0.261,-0.6940000000000001,-0.642,-0.38799999999999996,-0.166,-0.214,-0.336,0.447
-0.001,-0.659,-0.6579999999999999,0.33,0.32899999999999996,-0.6579999999999999,0.174,-0.23399999999999999,-0.6729999999999999,-0.623,-0.38,-0.16699999999999998,-0.225,-0.311,0.424
-0.045,-0.67,-0.625,0.358,0.29,-0.648,0.203,-0.20800000000000002,-0.657,-0.611,-0.374,-0.16899999999999998,-0.233,-0.293,0.401
-0.043,-0.6609999999999999,-0.619,0.35200000000000004,0.28800000000000003,-0.64,0.217,-0.196,-0.642,-0.597,-0.37,-0.174,-0.23800000000000002,-0.273,0.371
-0.057999999999999996,-0.66,-0.603,0.359,0.273,-0.632,0.243,-0.184,-0.634,-0.591,-0.37200000000000005,-0.182,-0.255,-0.252,0.35100000000000003
-0.071,-0.647,-0.5760000000000001,0.359,0.253,-0.612,0.285,-0.15,-0.617,-0.578,-0.36200000000000004,-0.17600000000000002,-0.265,-0.23600000000000002,0.34299999999999997
-0.071,-0.622,-0.55,0.34600000000000003,0.239,-0.586,0.322,-0.114,-0.595,-0.56,-0.348,-0.16899999999999998,-0.271,-0.22399999999999998,0.326
-0.085,-0.596,-0.511,0.34,0.213,-0.5529999999999999,0.371,-0.068,-0.56,-0.5329999999999999,-0.33,-0.16,-0.27699999999999997,-0.207,0.299
-0.11199999999999999,-0.585,-0.474,0.348,0.18100000000000002,-0.529,0.41,-0.032,-0.522,-0.503,-0.314,-0.154,-0.27899999999999997,-0.17800000000000002,0.268
-0.159,-0.58,-0.42200000000000004,0.369,0.132,-0.501,0.45,-0.001,-0.48200000000000004,-0.46799999999999997,-0.293,-0.14300000000000002,-0.282,-0.14300000000000002,0.228
-0.19,-0.5539999999999999,-0.364,0.37200000000000005,0.087,-0.46,0.509,0.040999999999999995,-0.428,-0.42,-0.262,-0.128,-0.28600000000000003,-0.106,0.17600000000000002
-0.23399999999999999,-0.536,-0.303,0.385,0.035,-0.42,0.57,0.081,-0.385,-0.38799999999999996,-0.24100000000000002,-0.11900000000000001,-0.295,-0.07400000000000001,0.134
-0.256,-0.506,-0.25,0.381,-0.003,-0.37799999999999995,0.624,0.10800000000000001,-0.364,-0.363,-0.222,-0.11,-0.308,-0.051,0.10099999999999999
-0.28600000000000003,-0.511,-0.226,0.39899999999999997,-0.03,-0.369,0.667,0.127,-0.36700000000000005,-0.358,-0.218,-0.11199999999999999,-0.318,-0.04,0.08
-0.301,-0.502,-0.201,0.402,-0.051,-0.35100000000000003,0.7240000000000001,0.172,-0.344,-0.34299999999999997,-0.207,-0.10800000000000001,-0.324,-0.028999999999999998,0.057999999999999996
-0.311,-0.485,-0.174,0.39899999999999997,-0.069,-0.33,0.7859999999999999,0.21600000000000003,-0.318,-0.32,-0.191,-0.107,-0.331,-0.035,0.032
-0.345,-0.486,-0.141,0.415,-0.102,-0.314,0.838,0.23600000000000002,-0.318,-0.317,-0.185,-0.105,-0.33899999999999997,-0.032,0.015
-0.363,-0.485,-0.121,0.424,-0.121,-0.303,0.8909999999999999,0.256,-0.319,-0.316,-0.179,-0.10099999999999999,-0.348,-0.01,-0.004
-0.396,-0.507,-0.11199999999999999,0.451,-0.141,-0.31,0.938,0.275,-0.32299999999999995,-0.317,-0.177,-0.106,-0.354,-0.013999999999999999,-0.013999999999999999
-0.42700000000000005,-0.522,-0.094,0.474,-0.16699999999999998,-0.308,0.956,0.275,-0.32899999999999996,-0.316,-0.175,-0.11,-0.35600000000000004,-0.026000000000000002,-0.021
-0.43200000000000005,-0.521,-0.08900000000000001,0.47600000000000003,-0.171,-0.305,0.995,0.28800000000000003,-0.322,-0.306,-0.168,-0.11,-0.363,-0.028999999999999998,-0.035
-0.44299999999999995,-0.511,-0.068,0.47600000000000003,-0.187,-0.29,1.028,0.294,-0.31,-0.289,-0.154,-0.1,-0.36700000000000005,-0.021,-0.053
-0.45399999999999996,-0.49200000000000005,-0.039,0.47200000000000003,-0.207,-0.266,1.028,0.272,-0.31,-0.275,-0.135,-0.08800000000000001,-0.369,-0.006999999999999999,-0.073
-0.473,-0.48100000000000004,-0.008,0.47600000000000003,-0.23199999999999998,-0.245,1.042,0.259,-0.306,-0.26,-0.11800000000000001,-0.077,-0.37200000000000005,0.006,-0.1
-0.503,-0.479,0.024,0.49,-0.264,-0.228,1.032,0.23600000000000002,-0.304,-0.242,-0.102,-0.068,-0.37,0.024,-0.127
-0.512,-0.466,0.046,0.488,-0.27899999999999997,-0.209,1.048,0.22699999999999998,-0.295,-0.226,-0.087,-0.059000000000000004,-0.37200000000000005,0.039,-0.147
-0.531,-0.45,0.08199999999999999,0.49,-0.306,-0.184,1.071,0.225,-0.281,-0.20600000000000002,-0.071,-0.045,-0.37799999999999995,0.043,-0.171
-0.534,-0.434,0.1,0.483,-0.317,-0.16699999999999998,1.075,0.213,-0.26899999999999996,-0.188,-0.059000000000000004,-0.036000000000000004,-0.376,0.054000000000000006,-0.18899999999999997
-0.536,-0.43,0.106,0.483,-0.321,-0.163,1.113,0.21,-0.262,-0.17800000000000002,-0.053,-0.035,-0.377,0.062,-0.20800000000000002
-0.561,-0.43,0.131,0.495,-0.34600000000000003,-0.15,1.143,0.205,-0.254,-0.165,-0.040999999999999995,-0.025,-0.377,0.062,-0.22399999999999998
-0.58,-0.42100000000000004,0.158,0.5,-0.368,-0.132,1.169,0.192,-0.244,-0.151,-0.027999999999999997,-0.018000000000000002,-0.377,0.07,-0.24
-0.595,-0.414,0.18,0.503,-0.387,-0.11699999999999999,1.1909999999999998,0.184,-0.23600000000000002,-0.138,-0.018000000000000002,-0.016,-0.38,0.08199999999999999,-0.263
-0.601,-0.40399999999999997,0.19699999999999998,0.501,-0.39899999999999997,-0.10300000000000001,1.209,0.175,-0.23399999999999999,-0.131,-0.008,-0.011000000000000001,-0.38,0.09300000000000001,-0.275
-0.616,-0.4,0.21600000000000003,0.507,-0.415,-0.092,1.23,0.161,-0.239,-0.129,-0.002,-0.006,-0.385,0.095,-0.284
-0.625,-0.40399999999999997,0.221,0.514,-0.42200000000000004,-0.092,1.242,0.14300000000000002,-0.253,-0.134,-0.004,-0.006999999999999999,-0.39,0.102,-0.29100000000000004
-0.618,-0.39899999999999997,0.21899999999999997,0.507,-0.418,-0.09,1.244,0.126,-0.26899999999999996,-0.141,-0.004,-0.011000000000000001,-0.392,0.10400000000000001,-0.292
-0.607,-0.384,0.22399999999999998,0.494,-0.415,-0.08,1.246,0.124,-0.272,-0.13699999999999998,0.003,-0.004,-0.39,0.099,-0.28300000000000003
-0.609,-0.4,0.209,0.503,-0.408,-0.096,1.224,0.107,-0.28600000000000003,-0.146,-0.005,-0.005,-0.381,0.092,-0.27
-0.621,-0.43200000000000005,0.18899999999999997,0.526,-0.405,-0.121,1.19,0.086,-0.308,-0.162,-0.019,-0.013999999999999999,-0.371,0.087,-0.255
-0.611,-0.434,0.17600000000000002,0.522,-0.39299999999999996,-0.13,1.169,0.081,-0.314,-0.168,-0.023,-0.015,-0.364,0.081,-0.24100000000000002
-0.5920000000000001,-0.424,0.168,0.507,-0.38,-0.129,1.141,0.079,-0.312,-0.163,-0.019,-0.009000000000000001,-0.355,0.065,-0.22699999999999998
-0.5710000000000001,-0.409,0.162,0.489,-0.366,-0.124,1.1059999999999999,0.081,-0.306,-0.15,-0.006999999999999999,0.001,-0.34299999999999997,0.062,-0.215
-0.5579999999999999,-0.40700000000000003,0.15,0.48200000000000004,-0.354,-0.129,1.038,0.071,-0.305,-0.14800000000000002,-0.002,0.005,-0.32799999999999996,0.055999999999999994,-0.2
-0.546,-0.409,0.13699999999999998,0.47700000000000004,-0.342,-0.13699999999999998,0.9570000000000001,0.064,-0.304,-0.14300000000000002,0.004,0.011000000000000001,-0.309,0.042,-0.177
-0.529,-0.401,0.128,0.465,-0.32799999999999996,-0.13699999999999998,0.878,0.051,-0.297,-0.133,0.013000000000000001,0.019,-0.29100000000000004,0.035,-0.163
-0.502,-0.39,0.113,0.446,-0.307,-0.139,0.794,0.034,-0.289,-0.12300000000000001,0.022000000000000002,0.025,-0.276,0.035,-0.15
-0.479,-0.363,0.11599999999999999,0.42100000000000004,-0.297,-0.124,0.73,0.026000000000000002,-0.278,-0.10800000000000001,0.037000000000000005,0.040999999999999995,-0.26,0.045,-0.14
-0.46799999999999997,-0.34299999999999997,0.124,0.405,-0.29600000000000004,-0.11,0.6559999999999999,0.009000000000000001,-0.272,-0.098,0.046,0.051,-0.247,0.054000000000000006,-0.129
-0.436,-0.331,0.105,0.384,-0.271,-0.113,0.585,-0.005,-0.263,-0.08900000000000001,0.054000000000000006,0.054000000000000006,-0.23399999999999999,0.054000000000000006,-0.11800000000000001
-0.419,-0.324,0.096,0.37200000000000005,-0.258,-0.115,0.53,-0.011000000000000001,-0.249,-0.076,0.065,0.064,-0.217,0.046,-0.111
-0.42100000000000004,-0.313,0.10800000000000001,0.36700000000000005,-0.264,-0.10300000000000001,0.474,-0.016,-0.23399999999999999,-0.061,0.079,0.076,-0.204,0.05,-0.10400000000000001
-0.415,-0.29100000000000004,0.124,0.353,-0.27,-0.084,0.429,-0.018000000000000002,-0.21600000000000003,-0.043,0.092,0.08800000000000001,-0.193,0.066,-0.10400000000000001
-0.389,-0.27,0.12,0.33,-0.254,-0.075,0.38299999999999995,-0.025,-0.19899999999999998,-0.026000000000000002,0.10400000000000001,0.09699999999999999,-0.17800000000000002,0.077,-0.10400000000000001
-0.35100000000000003,-0.254,0.09699999999999999,0.302,-0.22399999999999998,-0.079,0.327,-0.040999999999999995,-0.18899999999999997,-0.018000000000000002,0.107,0.1,-0.16399999999999998,0.083,-0.10400000000000001
-0.337,-0.23800000000000002,0.098,0.287,-0.217,-0.07,0.282,-0.053,-0.18,-0.008,0.115,0.10800000000000001,-0.151,0.083,-0.10300000000000001
-0.344,-0.222,0.12300000000000001,0.28300000000000003,-0.23399999999999999,-0.05,0.252,-0.057,-0.16,0.013999999999999999,0.136,0.126,-0.141,0.086,-0.1
-0.336,-0.221,0.11599999999999999,0.278,-0.226,-0.052000000000000005,0.205,-0.07400000000000001,-0.149,0.022000000000000002,0.141,0.13,-0.13,0.09,-0.09699999999999999
-0.306,-0.212,0.095,0.259,-0.2,-0.059000000000000004,0.165,-0.091,-0.146,0.027000000000000003,0.145,0.136,-0.11800000000000001,0.096,-0.091
-0.31,-0.20199999999999999,0.109,0.256,-0.209,-0.046,0.142,-0.09699999999999999,-0.132,0.042,0.162,0.149,-0.109,0.096,-0.087
-0.305,-0.19699999999999998,0.10800000000000001,0.251,-0.20600000000000002,-0.045,0.10800000000000001,-0.11,-0.126,0.048,0.166,0.153,-0.1,0.095,-0.083
-0.267,-0.188,0.079,0.228,-0.172,-0.055,0.079,-0.12300000000000001,-0.121,0.051,0.165,0.151,-0.09300000000000001,0.091,-0.08199999999999999
-0.259,-0.182,0.076,0.221,-0.16699999999999998,-0.053,0.066,-0.127,-0.11,0.06,0.174,0.16,-0.085,0.085,-0.08199999999999999
-0.256,-0.17600000000000002,0.079,0.215,-0.16699999999999998,-0.049,0.055999999999999994,-0.129,-0.107,0.066,0.18100000000000002,0.16399999999999998,-0.079,0.087,-0.079
-0.23,-0.166,0.064,0.198,-0.146,-0.051,0.045,-0.132,-0.102,0.069,0.185,0.161,-0.07400000000000001,0.08800000000000001,-0.079
-0.23399999999999999,-0.171,0.063,0.20199999999999999,-0.14800000000000002,-0.054000000000000006,0.038,-0.132,-0.09300000000000001,0.075,0.18600000000000003,0.16399999999999998,-0.07,0.09,-0.078
-0.243,-0.18,0.063,0.21100000000000002,-0.152,-0.059000000000000004,0.028999999999999998,-0.129,-0.08800000000000001,0.08,0.184,0.16899999999999998,-0.062,0.087,-0.077
-0.21,-0.157,0.053,0.184,-0.132,-0.052000000000000005,0.025,-0.126,-0.081,0.086,0.19399999999999998,0.175,-0.055,0.091,-0.077
-0.21600000000000003,-0.157,0.059000000000000004,0.187,-0.138,-0.049,0.02,-0.129,-0.08199999999999999,0.085,0.193,0.17300000000000001,-0.052000000000000005,0.09,-0.07200000000000001
-0.23600000000000002,-0.179,0.057999999999999996,0.20800000000000002,-0.147,-0.061,0.009000000000000001,-0.138,-0.087,0.08,0.184,0.16399999999999998,-0.051,0.081,-0.07400000000000001
-0.21600000000000003,-0.16899999999999998,0.048,0.193,-0.132,-0.06,0.006,-0.136,-0.085,0.083,0.187,0.163,-0.05,0.084,-0.07
-0.222,-0.159,0.063,0.191,-0.142,-0.048,0.006999999999999999,-0.126,-0.07200000000000001,0.091,0.19699999999999998,0.174,-0.046,0.085,-0.067
-0.22699999999999998,-0.16399999999999998,0.063,0.195,-0.14400000000000002,-0.051,0.0,-0.131,-0.073,0.08900000000000001,0.195,0.172,-0.043,0.087,-0.067
-0.23,-0.16899999999999998,0.061,0.19899999999999998,-0.145,-0.054000000000000006,-0.006,-0.133,-0.076,0.08800000000000001,0.192,0.17,-0.04,0.08900000000000001,-0.064
-0.242,-0.175,0.068,0.20800000000000002,-0.154,-0.054000000000000006,-0.013999999999999999,-0.135,-0.075,0.09,0.191,0.17,-0.037000000000000005,0.085,-0.062
-0.21899999999999997,-0.168,0.051,0.19399999999999998,-0.135,-0.059000000000000004,-0.025,-0.139,-0.081,0.087,0.188,0.168,-0.035,0.09300000000000001,-0.057999999999999996
-0.207,-0.163,0.045,0.185,-0.126,-0.059000000000000004,-0.026000000000000002,-0.14,-0.08199999999999999,0.085,0.18600000000000003,0.16699999999999998,-0.033,0.092,-0.057
-0.22399999999999998,-0.171,0.053,0.19699999999999998,-0.139,-0.059000000000000004,-0.028999999999999998,-0.141,-0.081,0.086,0.188,0.166,-0.035,0.084,-0.054000000000000006
-0.213,-0.165,0.049,0.18899999999999997,-0.131,-0.057999999999999996,-0.028999999999999998,-0.138,-0.075,0.09300000000000001,0.193,0.172,-0.033,0.086,-0.052000000000000005
-0.18899999999999997,-0.159,0.03,0.174,-0.11,-0.065,-0.033,-0.141,-0.078,0.08800000000000001,0.188,0.172,-0.03,0.086,-0.051
-0.21100000000000002,-0.166,0.046,0.18899999999999997,-0.129,-0.06,-0.033,-0.139,-0.077,0.08900000000000001,0.188,0.177,-0.027999999999999997,0.08900000000000001,-0.051
-0.23600000000000002,-0.172,0.064,0.204,-0.149,-0.054000000000000006,-0.03,-0.13699999999999998,-0.073,0.095,0.19399999999999998,0.183,-0.026000000000000002,0.08800000000000001,-0.05
-0.21600000000000003,-0.172,0.045,0.19399999999999998,-0.131,-0.064,-0.035,-0.14,-0.076,0.092,0.191,0.17800000000000002,-0.027000000000000003,0.077,-0.051
-0.198,-0.16699999999999998,0.03,0.182,-0.114,-0.069,-0.042,-0.14400000000000002,-0.079,0.08800000000000001,0.18600000000000003,0.172,-0.026000000000000002,0.086,-0.051
-0.2,-0.166,0.034,0.182,-0.11699999999999999,-0.066,-0.040999999999999995,-0.145,-0.077,0.091,0.188,0.174,-0.027000000000000003,0.092,-0.049
-0.19699999999999998,-0.16,0.037000000000000005,0.17800000000000002,-0.11699999999999999,-0.061,-0.032,-0.138,-0.07,0.099,0.19699999999999998,0.18100000000000002,-0.027000000000000003,0.08199999999999999,-0.05
-0.193,-0.16,0.034,0.17600000000000002,-0.113,-0.064,-0.038,-0.136,-0.071,0.09699999999999999,0.196,0.183,-0.025,0.079,-0.049
-0.193,-0.16399999999999998,0.028999999999999998,0.17800000000000002,-0.111,-0.068,-0.045,-0.141,-0.076,0.094,0.191,0.179,-0.025,0.087,-0.051
-0.20600000000000002,-0.161,0.045,0.183,-0.125,-0.059000000000000004,-0.05,-0.14400000000000002,-0.07400000000000001,0.09699999999999999,0.195,0.18,-0.024,0.092,-0.05
-0.217,-0.166,0.051,0.192,-0.134,-0.057999999999999996,-0.046,-0.142,-0.077,0.094,0.19399999999999998,0.179,-0.025,0.092,-0.049
-0.205,-0.165,0.04,0.185,-0.122,-0.063,-0.040999999999999995,-0.145,-0.08,0.09300000000000001,0.192,0.177,-0.025,0.08900000000000001,-0.053
-0.2,-0.157,0.043,0.17800000000000002,-0.121,-0.057,-0.044000000000000004,-0.14300000000000002,-0.076,0.09699999999999999,0.195,0.18100000000000002,-0.023,0.09,-0.051
-0.205,-0.153,0.051,0.179,-0.128,-0.051,-0.042,-0.139,-0.076,0.098,0.195,0.182,-0.022000000000000002,0.09,-0.051
-0.20800000000000002,-0.15,0.057999999999999996,0.179,-0.133,-0.046,-0.040999999999999995,-0.141,-0.07400000000000001,0.1,0.19699999999999998,0.183,-0.023,0.083,-0.053
-0.226,-0.163,0.063,0.195,-0.14400000000000002,-0.05,-0.044000000000000004,-0.14400000000000002,-0.079,0.09699999999999999,0.195,0.179,-0.023,0.087,-0.051
-0.215,-0.158,0.057999999999999996,0.187,-0.136,-0.051,-0.045,-0.142,-0.081,0.094,0.19399999999999998,0.18,-0.021,0.092,-0.049
-0.191,-0.138,0.052000000000000005,0.16399999999999998,-0.121,-0.043,-0.043,-0.138,-0.076,0.099,0.19899999999999998,0.183,-0.022000000000000002,0.098,-0.051
-0.215,-0.168,0.048,0.192,-0.132,-0.06,-0.054000000000000006,-0.149,-0.087,0.08900000000000001,0.188,0.171,-0.025,0.10300000000000001,-0.049
-0.225,-0.188,0.037000000000000005,0.20600000000000002,-0.131,-0.075,-0.061,-0.155,-0.095,0.08,0.179,0.16699999999999998,-0.024,0.09,-0.048
-0.223,-0.177,0.046,0.2,-0.135,-0.066,-0.052000000000000005,-0.147,-0.09,0.086,0.18899999999999997,0.17300000000000001,-0.024,0.081,-0.048
-0.23199999999999998,-0.17300000000000001,0.059000000000000004,0.203,-0.145,-0.057999999999999996,-0.048,-0.142,-0.083,0.09300000000000001,0.193,0.179,-0.021,0.083,-0.046
-0.22399999999999998,-0.172,0.052000000000000005,0.198,-0.138,-0.06,-0.048,-0.141,-0.08,0.095,0.193,0.18,-0.019,0.08,-0.047
-0.201,-0.17600000000000002,0.025,0.18899999999999997,-0.113,-0.076,-0.054000000000000006,-0.149,-0.09,0.087,0.185,0.171,-0.021,0.08,-0.046
-0.182,-0.174,0.006999999999999999,0.17800000000000002,-0.095,-0.084,-0.057,-0.151,-0.09300000000000001,0.084,0.182,0.16699999999999998,-0.02,0.077,-0.046
-0.193,-0.17300000000000001,0.019,0.183,-0.105,-0.077,-0.053,-0.145,-0.08900000000000001,0.08800000000000001,0.18600000000000003,0.171,-0.021,0.075,-0.048
